#   __   __     _        __  __       ____      U  ___  u   
#   \ \ / / U  /"\  U u |" \/ "| u U | __") u    \/"_ \/    
#    \ V /   \/ _ \/   \| |\/| |/   \|  _ \/     | | | |    
#   U_|"|_u  / ___ \    | |  | |     | |_) | .-,_| |_| |    
#     |_|   /_/   \_\   |_|  |_|     |____/   \_)-\___/     
# .-,//|(_   \\    >>  <<,-,,-.     _|| \\_        \\       
#  \_) (__) (__)  (__)  (./  \.)   (__) (__)      (__)      
#                                                           
#               Version 3.2.4 Revision 788                  
#                http://www.yambo-code.org                  
#
# Polarizability ( -<<X>> ) [volume @ Q(1) [q->0 direction]0.5774E-5 0.5774E-5 0.5774E-5
#
#
# - Energies      are Perdew & Wang (xc)
# - Wavefunctions are Perdew & Wang (xc)
#
# - The Green`s function is resonant -
# - Using the Length Gauge -
# - [r,Vnl] *is* included -
#
#   BSK|Identifier              :9966
#      |Dimension               :390
#      |Bands                   :10 - 50
#      |Exchange           [res]: yes
#      |Correlation        [res]: no
#      |Kernel`s coupling       : no
#      |Exchange           [cpl]: no
#      |W interaction is bare   : no
#      |Correlation        [cpl]: no
#      |ALDA kernel in R-space  : yes
#      |RL vectors    [exchange]:1511
#      |E/h energy range    [ev]:-1.000000 - -1.000000
#      |Coupling range     [o/o]: 100.0000 -  100.0000
#
#  E/ev[1]    alpha /Im[2alpha /Re[3alpha0/Im[4alpha0/Re[5]
#
  3.000     0.1763E-1   59.15     0.5524E-1   116.2   
    3.0100     0.9353    59.2199     2.8722   116.5538
    3.0200     0.9567    58.8769     2.9820   115.6013
    3.0300     0.9625    58.7838     3.0283   115.4239
    3.0401     0.9674    58.7436     3.0692   115.4085
    3.0501     0.9720    58.7327     3.1078   115.4814
    3.0601     0.9765    58.7339     3.1456   115.6021
    3.0701     0.9807    58.7600     3.1826   115.7675
    3.0801     0.9851    58.7749     3.2201   115.9428
    3.0901     0.9893    58.8051     3.2575   116.1442
    3.1001     0.9936    58.8429     3.2950   116.3656
    3.1101     0.9978    58.8815     3.3329   116.5996
    3.1202     1.0021    58.9147     3.3717   116.8339
    3.1302     1.0064    58.9587     3.4105   117.0890
    3.1402     1.0107    59.0064     3.4500   117.3521
    3.1502     1.0149    59.0557     3.4899   117.6262
    3.1602     1.0193    59.0975     3.5309   117.8956
    3.1702     1.0237    59.1495     3.5722   118.1839
    3.1802     1.0280    59.2043     3.6141   118.4793
    3.1902     1.0325    59.2493     3.6571   118.7731
    3.2003     1.0368    59.3155     3.7002   119.0896
    3.2103     1.0412    59.3740     3.7444   119.4053
    3.2203     1.0458    59.4216     3.7897   119.7177
    3.2303     1.0503    59.4816     3.8355   120.0463
    3.2403     1.0548    59.5418     3.8822   120.3787
    3.2503     1.0593    59.6039     3.9297   120.7199
    3.2603     1.0639    59.6652     3.9783   121.0642
    3.2703     1.0685    59.7289     4.0277   121.4165
    3.2804     1.0733    59.7851     4.0784   121.7679
    3.2904     1.0779    59.8500     4.1297   122.1335
    3.3004     1.0827    59.9142     4.1822   122.5027
    3.3104     1.0874    59.9821     4.2357   122.8802
    3.3204     1.0923    60.0381     4.2907   123.2538
    3.3304     1.0970    60.1158     4.3461   123.6515
    3.3404     1.1019    60.1823     4.4030   124.0456
    3.3504     1.1068    60.2524     4.4612   124.4473
    3.3605     1.1117    60.3222     4.5206   124.8539
    3.3705     1.1167    60.3911     4.5813   125.2678
    3.3805     1.1218    60.4517     4.6437   125.6812
    3.3905     1.1269    60.5234     4.7072   126.1083
    3.4005     1.1319    60.5969     4.7718   126.5454
    3.4105     1.1370    60.6793     4.8378   126.9939
    3.4205     1.1423    60.7422     4.9058   127.4364
    3.4305     1.1475    60.8165     4.9753   127.8904
    3.4406     1.1527    60.8916     5.0461   128.3556
    3.4506     1.1581    60.9573     5.1192   128.8159
    3.4606     1.1634    61.0426     5.1931   129.3038
    3.4706     1.1688    61.1178     5.2693   129.7868
    3.4806     1.1742    61.1949     5.3472   130.2819
    3.4906     1.1796    61.2828     5.4266   130.7909
    3.5006     1.1853    61.3516     5.5088   131.2932
    3.5106     1.1908    61.4308     5.5927   131.8113
    3.5207     1.1965    61.5093     5.6786   132.3381
    3.5307     1.2021    61.5899     5.7667   132.8734
    3.5407     1.2078    61.6788     5.8567   133.4234
    3.5507     1.2137    61.7511     5.9498   133.9706
    3.5607     1.2195    61.8344     6.0448   134.5354
    3.5707     1.2253    61.9169     6.1425   135.1070
    3.5807     1.2314    61.9892     6.2431   135.6821
    3.5907     1.2372    62.0848     6.3454   136.2834
    3.6008     1.2433    62.1694     6.4510   136.8876
    3.6108     1.2494    62.2552     6.5595   137.5016
    3.6208     1.2554    62.3475     6.6707   138.1323
    3.6308     1.2617    62.4252     6.7858   138.7623
    3.6408     1.2680    62.5108     6.9036   139.4100
    3.6508     1.2742    62.6072     7.0244   140.0750
    3.6608     1.2806    62.6977     7.1489   140.7487
    3.6708     1.2869    62.7938     7.2769   141.4368
    3.6809     1.2935    62.8743     7.4094   142.1288
    3.6909     1.3001    62.9637     7.5455   142.8386
    3.7009     1.3067    63.0540     7.6856   143.5620
    3.7109     1.3135    63.1364     7.8305   144.2932
    3.7209     1.3202    63.2358     7.9788   145.0508
    3.7309     1.3270    63.3288     8.1322   145.8169
    3.7409     1.3338    63.4220     8.2904   146.5989
    3.7509     1.3406    63.5348     8.4524   147.4088
    3.7610     1.3478    63.6104     8.6221   148.2096
    3.7710     1.3548    63.7158     8.7955   149.0453
    3.7810     1.3619    63.8133     8.9752   149.8928
    3.7910     1.3691    63.9093     9.1607   150.7582
    3.8010     1.3764    64.0146     9.3523   151.6449
    3.8110     1.3838    64.1042     9.5512   152.5417
    3.8210     1.3912    64.2113     9.7560   153.4676
    3.8310     1.3987    64.3110     9.9685   154.4087
    3.8411     1.4064    64.4038    10.1891   155.3655
    3.8511     1.4139    64.5132    10.4164   156.3534
    3.8611     1.4217    64.6146    10.6523   157.3589
    3.8711     1.4294    64.7268    10.8965   158.3917
    3.8811     1.4372    64.8383    11.1498   159.4480
    3.8911     1.4454    64.9242    11.4147   160.5147
    3.9011     1.4534    65.0375    11.6879   161.6194
    3.9111     1.4616    65.1439    11.9719   162.7491
    3.9212     1.4697    65.2590    12.2668   163.9079
    3.9312     1.4780    65.3758    12.5731   165.0972
    3.9412     1.4865    65.4762    12.8938   166.3039
    3.9512     1.4951    65.5827    13.2267   167.5462
    3.9612     1.5037    65.6936    13.5735   168.8207
    3.9712     1.5124    65.8038    13.9350   170.1274
    3.9812     1.5211    65.9242    14.3109   171.4747
    3.9912     1.5300    66.0385    14.7044   172.8509
    4.0013     1.5390    66.1507    15.1150   174.2661
    4.0113     1.5479    66.2824    15.5430   175.7247
    4.0213     1.5573    66.3786    15.9933   177.2111
    4.0313     1.5665    66.5029    16.4627   178.7475
    4.0413     1.5759    66.6287    16.9536   180.3300
    4.0513     1.5854    66.7476    17.4694   181.9530
    4.0613     1.5949    66.8744    18.0094   183.6272
    4.0713     1.6048    66.9853    18.5787   185.3427
    4.0814     1.6146    67.1139    19.1746   187.1174
    4.0914     1.6246    67.2353    19.8026   188.9422
    4.1014     1.6348    67.3471    20.4650   190.8195
    4.1114     1.6448    67.4908    21.1592   192.7675
    4.1214     1.6552    67.6126    21.8944   194.7684
    4.1314     1.6656    67.7401    22.6705   196.8350
    4.1414     1.6762    67.8726    23.4902   198.9712
    4.1514     1.6870    67.9921    24.3601   201.1720
    4.1615     1.6978    68.1292    25.2792   203.4539
    4.1715     1.7087    68.2672    26.2554   205.8109
    4.1815     1.7199    68.3977    27.2932   208.2478
    4.1915     1.7311    68.5373    28.3972   210.7702
    4.2015     1.7425    68.6718    29.5737   213.3808
    4.2115     1.7542    68.8038    30.8305   216.0819
    4.2215     1.7659    68.9407    32.1733   218.8804
    4.2315     1.7779    69.0741    33.6114   221.7783
    4.2416     1.7898    69.2216    35.1520   224.7820
    4.2516     1.8021    69.3583    36.8083   227.8909
    4.2616     1.8144    69.5077    38.5890   231.1111
    4.2716     1.8269    69.6565    40.5072   234.4436
    4.2816     1.8398    69.7890    42.5798   237.8870
    4.2916     1.8527    69.9412    44.8139   241.4471
    4.3016     1.8659    70.0857    47.2278   245.1184
    4.3116     1.8791    70.2404    49.8317   248.9002
    4.3217     1.8926    70.3960    52.6385   252.7865
    4.3317     1.9064    70.5439    55.6579   256.7707
    4.3417     1.9204    70.6928    58.8927   260.8456
    4.3517     1.9347    70.8442    62.3437   265.0050
    4.3617     1.9492    70.9950    66.0079   269.2477
    4.3717     1.9638    71.1582    69.8794   273.5813
    4.3817     1.9787    71.3216    73.9572   278.0277
    4.3917     1.9940    71.4774    78.2490   282.6255
    4.4018     2.0093    71.6532    82.7691   287.4208
    4.4118     2.0255    71.7952    87.5652   292.4751
    4.4218     2.0415    71.9719    92.6935   297.8300
    4.4318     2.0580    72.1355    98.2478   303.5331
    4.4418     2.0747    72.3063   104.3327   309.6071
    4.4518     2.0917    72.4803   111.0674   316.0647
    4.4618     2.1093    72.6369   118.5771   322.9042
    4.4718     2.1268    72.8130   126.9923   330.0963
    4.4819     2.1447    72.9800   136.4513   337.6073
    4.4919     2.1627    73.1512   147.1049   345.3786
    4.5019     2.1805    73.3313   159.1220   353.3235
    4.5119     2.1984    73.5128   172.6887   361.3421
    4.5219     2.2162    73.6872   188.0070   369.2985
    4.5319     2.2337    73.8815   205.3201   376.9803
    4.5419     2.2516    74.0490   224.8478   384.1751
    4.5519     2.2692    74.2412   246.8785   390.4959
    4.5620     2.2871    74.4212   271.6342   395.5372
    4.5720     2.3051    74.6145   299.3555   398.6836
    4.5820     2.3233    74.8106   330.1786   399.2004
    4.5920     2.3421    74.9976   364.0802   396.2120
    4.6020     2.3610    75.1980   400.8600   388.5577
    4.6120     2.3806    75.3918   439.9146   375.0648
    4.6220     2.4006    75.5874   480.2010   354.4710
    4.6320     2.4210    75.7915   520.1057   325.5885
    4.6421     2.4417    76.0019   557.3927   287.7888
    4.6521     2.4631    76.2006   589.3935   241.2544
    4.6621     2.4846    76.4234   613.2239   186.8781
    4.6721     2.5072    76.6200   626.6060   127.3364
    4.6821     2.5298    76.8380   627.8975    65.4843
    4.6921     2.5530    77.0569   616.9632     5.0473
    4.7021     2.5768    77.2700   595.2089   -50.5187
    4.7121     2.6008    77.5012   564.6035   -98.8798
    4.7222     2.6257    77.7115   528.4100  -138.5020
    4.7322     2.6509    77.9407   488.8665  -169.2328
    4.7422     2.6765    78.1730   448.5081  -191.5557
    4.7522     2.7031    78.3880   409.2719  -206.5635
    4.7622     2.7295    78.6432   371.7303  -215.3496
    4.7722     2.7572    78.8636   337.3122  -219.3995
    4.7822     2.7851    79.1047   305.7390  -219.6187
    4.7922     2.8134    79.3578   277.1957  -216.9971
    4.8023     2.8431    79.5802   251.8289  -212.5148
    4.8123     2.8728    79.8387   228.9996  -206.4453
    4.8223     2.9032    80.0920   208.7176  -199.4514
    4.8323     2.9345    80.3383   190.7455  -191.9253
    4.8423     2.9661    80.6068   174.6804  -183.9548
    4.8523     2.9991    80.8491   160.5014  -175.9949
    4.8623     3.0324    81.1171   147.7895  -167.9149
    4.8723     3.0665    81.3843   136.4470  -159.9304
    4.8824     3.1016    81.6496   126.3260  -152.1436
    4.8924     3.1372    81.9329   117.2133  -144.4833
    4.9024     3.1741    82.2035   109.0639  -137.1272
    4.9124     3.2120    82.4768   101.7323  -130.0321
    4.9224     3.2504    82.7724    95.0726  -123.0970
    4.9324     3.2906    83.0441    89.1065  -116.5548
    4.9424     3.3312    83.3456    83.6465  -110.1396
    4.9524     3.3733    83.6359    78.7194  -104.0588
   4.96245    3.41651   83.93652   74.22096  -98.18376
   4.97247    3.46097   84.24187   70.11819  -92.54101
   4.98248    3.50707   84.54125   66.38172  -87.15938
   4.99249    3.55433   84.85459   62.94820  -81.94736
   5.00250    3.60308   85.17245   59.80195  -76.94346
   5.01252    3.65365   85.48567   56.92074  -72.15792
   5.02253    3.70538   85.81738   54.25543  -67.49751
   5.03254    3.75917   86.13926   51.81604  -63.06250
   5.04255    3.81429   86.47337   49.55943  -58.75863
   5.05257    3.87102   86.80898   47.47945  -54.61554
   5.06258    3.92955   87.13625   45.57195  -50.66960
   5.07259    3.98856   87.49015   43.78596  -46.76139
   5.08260    4.04881   87.84148   42.14293  -43.01619
   5.09262    4.11026   88.18834   40.62857  -39.41396
   5.10263    4.17195   88.55653   39.21600  -35.87003
   5.11264    4.23502   88.91603   37.92017  -32.48143
   5.12265    4.29907   89.28608   36.71811  -29.17184
   5.13267    4.36477   89.65797   35.61032  -25.96819
   5.14268    4.43250   90.03481   34.58922  -22.85684
   5.15269    4.50156   90.44644   33.63132  -19.74026
   5.16270    4.57462   90.83646   32.76657  -16.78547
   5.17272    4.65084   91.23702   31.97090  -13.88722
   5.18273    4.73022   91.65796   31.23672  -11.01835
   5.19274    4.81453   92.06342   30.57900   -8.26905
   5.20275    4.90217   92.49917   29.97176   -5.51027
   5.21277    4.99472   92.93240   29.42870   -2.82231
   5.22278    5.09228   93.36605   28.94830   -0.20415
   5.23279    5.19401   93.81843   28.51785    2.40998
   5.24280    5.30106   94.26181   28.15075    4.94174
   5.25282    5.41211   94.71750   27.83480    7.45535
   5.26283    5.52692   95.17655   27.57255    9.93291
   5.27284    5.64482   95.63226   27.36657   12.35597
   5.28285    5.76351   96.10568   27.20441   14.78896
   5.29287    5.88284   96.57040   27.09808   17.15932
   5.30288    6.00046   97.04591   27.03791   19.51625
   5.31289    6.11511   97.53899   27.01914   21.88465
   5.32290    6.22830   98.01794   27.05861   24.17562
   5.33292    6.33834   98.52724   27.13752   26.50580
   5.34293    6.44781   99.04662   27.26799   28.83102
   5.35294    6.55809   99.58578   27.45305   31.16728
    5.3630     6.6711   100.1482    27.6963    33.5335
    5.3730     6.7901   100.7134    28.0162    35.8776
    5.3830     6.9153   101.3031    28.4094    38.2621
    5.3930     7.0487   101.9099    28.8897    40.6646
    5.4030     7.1918   102.5268    29.4669    43.0843
    5.4130     7.3440   103.1750    30.1453    45.5512
    5.4230     7.5082   103.8248    30.9443    48.0269
    5.4330     7.6835   104.4970    31.8721    50.5315
    5.4431     7.8708   105.1933    32.9369    53.0886
    5.4531     8.0728   105.8837    34.1735    55.6204
    5.4631     8.2872   106.6113    35.5766    58.2173
    5.4731     8.5170   107.3469    37.1809    60.8157
    5.4831     8.7631   108.0928    39.0107    63.4065
    5.4931     9.0248   108.8665    41.0785    66.0169
    5.5031     9.3050   109.6388    43.4296    68.5718
    5.5131     9.6024   110.4343    46.0767    71.0951
    5.5232     9.9178   111.2395    49.0547    73.5369
    5.5332    10.2511   112.0511    52.3959    75.8474
    5.5432    10.5987   112.8914    56.1002    78.0373
    5.5532    10.9622   113.7239    60.2320    79.9636
    5.5632    11.3368   114.5735    64.7791    81.6297
    5.5732    11.7197   115.4460    69.7636    82.9563
    5.5832    12.1124   116.3164    75.2294    83.8160
    5.5932    12.5100   117.2328    81.1446    84.1740
    5.6033    12.9183   118.1720    87.5446    83.8441
    5.6133    13.3409   119.1485    94.3886    82.6701
    5.6233    13.7841   120.1688   101.5912    80.4426
    5.6333    14.2568   121.2279   108.9916    76.9226
    5.6433    14.7659   122.3388   116.2956    71.9074
    5.6533    15.3206   123.4966   123.1076    65.2474
    5.6633    15.9302   124.6938   128.9594    56.9113
    5.6733    16.5989   125.9515   133.2478    47.1420
    5.6834    17.3413   127.2305   135.6106    36.2618
    5.6934    18.1615   128.5521   135.6612    24.9370
    5.7034    19.0690   129.9090   133.3500    13.8597
    5.7134    20.0776   131.2738   128.9613     3.6218
    5.7234    21.1911   132.6683   122.8107    -5.1637
    5.7334    22.4235   134.0625   115.5018   -12.2731
    5.7434    23.7846   135.4430   107.5639   -17.6255
    5.7534    25.2812   136.7955    99.4429   -21.2875
    5.7635    26.9222   138.0829    91.5361   -23.5266
    5.7735    28.7054   139.2859    84.0399   -24.5285
    5.7835    30.6227   140.3707    77.1020   -24.5534
    5.7935    32.6591   141.2895    70.8001   -23.8626
    5.8035    34.7731   142.0292    65.0975   -22.5345
    5.8135    36.9279   142.5275    60.0417   -20.8986
    5.8235    39.0489   142.7873    55.5453   -18.9597
    5.8335    41.0577   142.8122    51.5654   -16.8311
    5.8436    42.8794   142.6201    48.0700   -14.6531
    5.8536    44.4350   142.2925    44.9846   -12.4155
    5.8636    45.6818   141.9180    42.2652   -10.1843
    5.8736    46.6118   141.6064    39.8627    -7.9896
    5.8836    47.2558   141.4659    37.7263    -5.8377
    5.8936    47.6822   141.5734    35.8205    -3.7796
    5.9036    47.9698   141.9905    34.1008    -1.8108
  5.914      48.20      142.7      32.53     0.9084E-1
    5.9237    48.4685   143.8382    31.0737     1.8788
    5.9337    48.8228   145.2802    29.6969     3.6988
    5.9437    49.3457   147.0239    28.4124     5.4024
    5.9537    50.0817   149.0598    27.1942     7.1088
    5.9637    51.0764   151.3592    26.0446     8.8160
    5.9737    52.3813   153.8730    24.9775    10.4635
    5.9837    54.0157   156.5901    23.9785    12.1594
    5.9937    56.0192   159.4618    23.0609    13.8343
    6.0038    58.4161   162.4578    22.2233    15.4972
    6.0138    61.2268   165.5494    21.4604    17.1727
    6.0238    64.4844   168.6958    20.7792    18.7922
    6.0338    68.1999   171.8826    20.1660    20.4283
    6.0438    72.4108   175.0751    19.6252    22.0223
    6.0538    77.1532   178.2513    19.1530    23.5750
    6.0638    82.4623   181.3926    18.7356    25.1689
    6.0738    88.4230   184.4535    18.3870    26.6747
    6.0839    95.1038   187.3906    18.0942    28.1757
    6.0939   102.6003   190.1237    17.8563    29.6676
    6.1039   111.0333   192.5252    17.6775    31.1051
    6.1139   120.4982   194.4186    17.5525    32.5233
    6.1239   131.0826   195.5560    17.4786    33.9372
    6.1339   142.8543   195.6201    17.4610    35.2921
    6.1439   155.7825   194.2208    17.4926    36.6303
    6.1539   169.7632   190.9162    17.5784    37.8837
    6.1640   184.4876   185.2222    17.7058    39.1098
    6.1740   199.4762   176.6842    17.8709    40.2773
    6.1840   214.0007   164.9477    18.0628    41.3863
    6.1940   227.1311   149.8870    18.2663    42.4534
    6.2040   237.8328   131.7204    18.4723    43.4434
    6.2140   245.0957   111.0863    18.6646    44.3878
    6.2240   248.1540    89.0139    18.8327    45.3110
    6.2340   246.7816    66.7981    18.9819    46.1707
    6.2441   241.0780    45.7355    19.1051    47.0733
    6.2541   231.7660    26.9108    19.2185    47.9938
    6.2641   219.8204    11.0128    19.3415    48.9027
    6.2741   206.2065    -1.6630    19.4809    49.8500
    6.2841   191.9026   -11.2090    19.6562    50.7614
    6.2941   177.5682   -17.8834    19.8620    51.6866
    6.3041   163.7300   -22.0941    20.0995    52.5818
    6.3141   150.7295   -24.2837    20.3544    53.4647
    6.3242   138.6972   -24.8086    20.6117    54.3368
    6.3342   127.8073   -24.1290    20.8640    55.1543
    6.3442   117.9864   -22.4677    21.0962    55.9620
    6.3542   109.2098   -20.0897    21.2999    56.8178
    6.3642   101.4344   -17.2218    21.4959    57.6654
   6.37422   94.54963  -13.96684   21.68940   58.60239
   6.38423   88.50480  -10.48203   21.91335   59.58915
   6.39424   83.21773   -6.84088   22.19317   60.64100
   6.40426   78.61522   -3.09722   22.55264   61.77028
   6.41427   74.66322    0.64211   23.02439   62.91637
   6.42428   71.27265    4.39435   23.61994   64.11535
   6.43429   68.41502    8.06794   24.36363   65.30579
   6.44431   66.02753   11.64968   25.26917   66.46487
   6.45432   64.05437   15.12324   26.34230   67.58226
   6.46433   62.45595   18.45073   27.59542   68.58662
   6.47434   61.18244   21.63881   29.02301   69.45045
   6.48436   60.19054   24.70737   30.60932   70.13602
   6.49437   59.47509   27.61305   32.33582   70.54861
   6.50438   58.99424   30.41906   34.14155   70.68615
   6.51439   58.75314   33.08115   35.96157   70.47635
   6.52441   58.73339   35.60079   37.70066   69.89947
   6.53442   58.90925   37.97555   39.24667   68.97065
   6.54443   59.26430   40.16228   40.49716   67.71317
   6.55444   59.73908   42.21408   41.34460   66.27138
   6.56446   60.31615   44.10912   41.75112   64.73232
   6.57447   60.96286   45.90891   41.71573   63.24954
   6.58448   61.67402   47.67621   41.28437   61.98703
   6.59449   62.50570   49.40992   40.58247   60.95591
   6.60451   63.49443   51.18949   39.70131   60.28643
   6.61452   64.72467   53.00460   38.76862   59.94005
   6.62453   66.30428   54.77705   37.89190   59.84047
   6.63454   68.27056   56.51717   37.11428   60.00546
   6.64456   70.70485   58.08176   36.48102   60.33130
   6.65457   73.64246   59.33918   36.00501   60.71946
   6.66458   77.07549   60.14524   35.65695   61.13974
   6.67459   80.96577   60.31021   35.40876   61.50729
   6.68461   85.18466   59.68737   35.19277   61.86715
   6.69462   89.56690   58.09034   34.97464   62.17630
   6.70463   93.85597   55.39955   34.71356   62.48750
   6.71464   97.70839   51.59961   34.39000   62.87414
    6.7247   100.8204    46.7041    34.0403    63.3003
    6.7347   102.8183    40.9794    33.6814    63.8735
    6.7447   103.4536    34.7827    33.3620    64.6146
    6.7547   102.6892    28.4818    33.1580    65.4327
    6.7647   100.5378    22.6024    33.0894    66.4147
   6.77472   97.27124   17.46593   33.21065   67.46831
   6.78473   93.22722   13.29205   33.55285   68.53899
   6.79474   88.74339   10.18840   34.12606   69.60069
   6.80476   84.16713    8.06966   34.94744   70.55112
   6.81477   79.71428    6.86256   35.99558   71.37294
   6.82478   75.57183    6.36972   37.25000   71.97923
   6.83479   71.85232    6.36711   38.67648   72.26154
   6.84481   68.55033    6.76026   40.17723   72.23664
   6.85482   65.68925    7.30906   41.67720   71.78024
   6.86483   63.20056    7.91472   43.04254   70.90461
   6.87484   60.99364    8.49971   44.12721   69.66353
   6.88486   58.98941    8.95374   44.82334   68.08045
   6.89487   57.05618    9.32851   45.01053   66.35849
   6.90488   55.12119    9.60226   44.67073   64.60472
   6.91489   53.10974    9.86206   43.81917   63.01447
   6.92491   51.00158   10.16518   42.54122   61.71830
   6.93492   48.81571   10.55143   40.96770   60.76876
   6.94493   46.56821   11.12972   39.20569   60.26944
   6.95494   44.32117   11.88128   37.38702   60.17633
   6.96496   42.11612   12.82719   35.60390   60.46756
   6.97497   39.98389   13.99261   33.91910   61.12449
   6.98498   37.97701   15.27588   32.39814   62.01980
   6.99499   36.09741   16.73473   31.05284   63.15667
   7.00501   34.36728   18.31810   29.89616   64.48442
   7.01502   32.80495   19.96383   28.94368   65.90652
   7.02503   31.39990   21.71568   28.17431   67.46365
   7.03504   30.16050   23.51774   27.59038   69.08990
   7.04506   29.08686   25.33770   27.18579   70.75487
   7.05507   28.16720   27.19407   26.94588   72.47324
   7.06508   27.40639   29.01991   26.87369   74.18883
   7.07509   26.78643   30.86608   26.95310   75.94615
   7.08511   26.30768   32.69030   27.18738   77.71541
   7.09512   25.96958   34.45570   27.58492   79.46246
   7.10513   25.75492   36.21779   28.13567   81.24720
   7.11514   25.66969   37.90330   28.86244   83.00006
   7.12516   25.70384   39.52058   29.77270   84.72359
   7.13517   25.84328   41.09001   30.86893   86.43943
   7.14518   26.09259   42.51526   32.18627   88.03508
   7.15519   26.41711   43.89423   33.70406   89.59242
   7.16521   26.81408   45.13607   35.45150   90.98534
   7.17522   27.25494   46.27658   37.41200   92.21231
   7.18523   27.72035   47.30657   39.57260   93.21020
   7.19524   28.19745   48.20660   41.91124   93.89434
   7.20526   28.66344   49.04160   44.35437   94.26936
   7.21527   29.12124   49.78876   46.84150   94.26110
   7.22528   29.57092   50.46501   49.28050   93.86214
   7.23529   30.00919   51.09613   51.55783   93.12629
   7.24531   30.44436   51.62331   53.61814   92.03476
   7.25532   30.85628   52.06409   55.37658   90.70654
   7.26533   31.21721   52.42202   56.80152   89.22749
   7.27534   31.50019   52.67794   57.90065   87.66711
   7.28536   31.66124   52.91137   58.66928   86.15495
   7.29537   31.69333   53.11557   59.17004   84.71243
   7.30538   31.59279   53.36835   59.44024   83.42268
   7.31539   31.38556   53.71896   59.54408   82.33470
   7.32541   31.12443   54.16955   59.58483   81.43734
   7.33542   30.85106   54.78984   59.62326   80.79690
   7.34543   30.62582   55.55280   59.77459   80.34790
   7.35544   30.50398   56.40793   60.13572   79.99921
   7.36546   30.50857   57.38859   60.73143   79.71018
   7.37547   30.68307   58.38386   61.61315   79.28862
   7.38548   31.03382   59.38967   62.72487   78.63949
   7.39549   31.56989   60.33629   63.98623   77.61996
   7.40551   32.28824   61.14625   65.26776   76.11318
   7.41552   33.15319   61.81056   66.35470   74.13911
   7.42553   34.12842   62.24692   67.06499   71.71303
   7.43554   35.15126   62.40409   67.23877   68.93787
   7.44556   36.13148   62.27457   66.74194   66.04922
   7.45557   36.97423   61.84411   65.58348   63.22097
   7.46558   37.57333   61.17519   63.80917   60.70551
   7.47559   37.85330   60.32596   61.58256   58.60890
   7.48561   37.76464   59.42405   59.05830   57.03064
   7.49562   37.30589   58.60911   56.38678   55.99927
   7.50563   36.53962   57.94951   53.71810   55.41683
   7.51564   35.54097   57.55391   51.12143   55.24696
   7.52566   34.41061   57.44839   48.64240   55.41520
   7.53567   33.24831   57.60668   46.31734   55.80772
   7.54568   32.11746   58.04986   44.11612   56.46530
   7.55570   31.07932   58.70635   42.05493   57.30499
   7.56571   30.16863   59.51264   40.13509   58.29010
   7.57572   29.38869   60.45607   38.33474   59.47110
   7.58573   28.75097   61.42540   36.68689   60.72544
   7.59575   28.22453   62.44961   35.16135   62.14532
   7.60576   27.79311   63.47100   33.77672   63.65990
   7.61577   27.43242   64.46373   32.53519   65.25612
   7.62578   27.10706   65.47469   31.42676   66.97247
   7.63580   26.80917   66.46220   30.46602   68.75148
   7.64581   26.52279   67.46819   29.65079   70.59714
   7.65582   26.24833   68.49728   28.97945   72.50845
   7.66583   25.99508   69.53468   28.46270   74.42724
   7.67585   25.75800   70.64038   28.07877   76.43293
   7.68586   25.55407   71.75813   27.84626   78.43248
   7.69587   25.37923   72.91781   27.75156   80.47504
   7.70588   25.23503   74.10724   27.80077   82.53057
   7.71589   25.12342   75.30197   28.00068   84.57335
   7.72591   25.02903   76.56062   28.33867   86.66723
   7.73592   24.96026   77.83385   28.83660   88.73954
   7.74593   24.91283   79.15286   29.49695   90.80759
   7.75594   24.88737   80.54858   30.31940   92.90174
   7.76596   24.90217   81.98866   31.33529   94.94064
   7.77597   24.96441   83.50902   32.54136   96.97239
   7.78598   25.09126   85.10197   33.96380   98.94006
    7.7960    25.3024    86.7442    35.6187   100.8180
    7.8060    25.6009    88.4793    37.5070   102.6124
    7.8160    26.0094    90.2524    39.6557   104.2304
    7.8260    26.5326    92.0809    42.0561   105.6475
    7.8360    27.1819    93.9469    44.6997   106.7925
    7.8461    27.9710    95.8216    47.5686   107.5645
    7.8561    28.8973    97.7371    50.5749   107.9562
    7.8661    29.9800    99.6361    53.6597   107.8358
    7.8761    31.2223   101.5204    56.6890   107.1869
    7.8861    32.6251   103.3884    59.5000   106.0306
    7.8961    34.2020   105.1871    61.9676   104.3694
    7.9061    35.9459   106.9182    63.9345   102.3559
    7.9161    37.8567   108.5486    65.3277   100.1381
    7.9262    39.9306   110.0396    66.1441    97.8925
    7.9362    42.1392   111.4052    66.4212    95.8339
    7.9462    44.4789   112.5831    66.3055    94.0492
    7.9562    46.9132   113.5822    65.9256    92.6271
    7.9662    49.4181   114.3810    65.4240    91.5600
    7.9762    51.9669   114.9717    64.9098    90.8019
    7.9862    54.5272   115.3723    64.4441    90.3016
    7.9962    57.0822   115.5896    64.0558    90.0063
    8.0063    59.6299   115.6271    63.7783    89.8319
    8.0163    62.1585   115.5127    63.5810    89.8000
    8.0263    64.6944   115.2114    63.5022    89.8230
    8.0363    67.2303   114.7136    63.5257    89.9123
    8.0463    69.7420   113.9933    63.6418    90.0727
    8.0563    72.2111   112.9721    63.8905    90.2331
    8.0663    74.5304   111.6570    64.2403    90.4558
    8.0763    76.6250   110.0069    64.7484    90.6672
    8.0864    78.3607   108.0854    65.4244    90.8760
    8.0964    79.6409   105.9776    66.3094    91.0183
    8.1064    80.4128   103.8104    67.4332    91.0039
    8.1164    80.6395   101.7847    68.7528    90.7903
    8.1264    80.4043   100.0297    70.2417    90.2342
   8.13642   79.82366   98.66180   71.81960   89.21357
   8.14643   78.99680   97.80421   73.27916   87.75520
   8.15645   78.11182   97.42656   74.50900   85.75352
   8.16646   77.28049   97.53391   75.29281   83.31900
   8.17647   76.59666   98.10083   75.46219   80.61184
   8.18648   76.17850   99.02777   74.96546   77.78035
    8.1965    76.0561   100.3004    73.7515    75.1257
    8.2065    76.3178   101.8117    71.9517    72.7889
    8.2165    76.9926   103.5160    69.6936    70.9561
    8.2265    78.1286   105.3272    67.1598    69.6953
    8.2365    79.7623   107.1559    64.5387    68.9783
    8.2466    81.9039   108.9227    61.9370    68.8159
    8.2566    84.5639   110.5235    59.4797    69.0882
    8.2666    87.7435   111.8456    57.2200    69.7290
    8.2766    91.4005   112.7936    55.1806    70.6869
    8.2866    95.5139   113.2242    53.3945    71.8564
    8.2966    99.9925   113.0251    51.8524    73.2136
    8.3066   104.7256   112.0639    50.5533    74.7195
    8.3166   109.5632   110.2122    49.5099    76.3128
    8.3267   114.2561   107.4079    48.7022    78.0195
    8.3367   118.5746   103.6081    48.1637    79.7402
    8.3467   122.2090    98.9113    47.8823    81.4796
    8.3567   124.8768    93.5326    47.8470    83.2256
    8.3667   126.4550    87.7478    48.0827    84.8643
    8.3767   126.8382    81.9614    48.5375    86.4529
    8.3867   126.1900    76.4787    49.2276    87.8799
    8.3967   124.6954    71.5801    50.1137    89.1652
    8.4068   122.6384    67.3937    51.1811    90.2695
    8.4168   120.3221    63.8979    52.4260    91.1265
    8.4268   117.9344    61.0211    53.8091    91.7247
    8.4368   115.6142    58.6100    55.2900    92.0227
    8.4468   113.4385    56.4769    56.8353    91.9261
    8.4568   111.3140    54.5486    58.3122    91.4966
    8.4668   109.2483    52.6486    59.6742    90.6062
    8.4768   107.1059    50.7708    60.7710    89.3219
    8.4869   104.7694    48.9470    61.4679    87.7145
    8.4969   102.2086    47.1811    61.6850    85.8332
   8.50688   99.31793   45.63511   61.30976   83.89558
   8.51690   96.13857   44.37214   60.34768   82.03786
   8.52691   92.71724   43.49461   58.86020   80.40754
   8.53692   89.11025   43.12370   56.91867   79.21242
   8.54693   85.46217   43.25090   54.70350   78.46570
   8.55695   81.85797   43.91712   52.33757   78.25780
   8.56696   78.40412   45.08198   49.97260   78.54226
   8.57697   75.18743   46.68063   47.71769   79.27185
   8.58698   72.24041   48.68855   45.64174   80.40369
   8.59700   69.62582   50.99037   43.81590   81.81132
   8.60701   67.33781   53.56171   42.25222   83.46477
   8.61702   65.38441   56.33607   40.96828   85.28306
   8.62703   63.76316   59.25785   39.96951   87.19702
   8.63705   62.44775   62.32343   39.24297   89.17531
   8.64706   61.43321   65.50379   38.77998   91.16847
   8.65707   60.72248   68.77592   38.57510   93.11004
   8.66708   60.30077   72.17278   38.59378   95.00724
   8.67710   60.20583   75.64018   38.83314   96.76173
   8.68711   60.43897   79.20352   39.24762   98.37466
   8.69712   61.02358   82.84665   39.79310   99.81639
    8.7071    62.0074    86.5054    40.4370   101.0021
    8.7171    63.3821    90.2156    41.0842   102.0004
    8.7272    65.1981    93.9011    41.6837   102.7671
    8.7372    67.4795    97.5288    42.1682   103.3341
    8.7472    70.2388   101.0751    42.4697   103.7895
    8.7572    73.5281   104.4483    42.5804   104.1407
    8.7672    77.3405   107.6312    42.4625   104.5333
    8.7772    81.7209   110.5163    42.1516   104.9816
    8.7872    86.6895   113.0131    41.6754   105.5502
    8.7972    92.2357   115.0281    41.0646   106.3124
    8.8073    98.3787   116.3990    40.3847   107.2605
    8.8173   105.0632   116.9751    39.6801   108.4352
    8.8273   112.1994   116.5659    38.9998   109.8520
    8.8373   119.6756   114.9340    38.4165   111.4395
    8.8473   127.1834   111.9175    37.9405   113.2624
    8.8573   134.4501   107.3277    37.6302   115.2290
    8.8673   141.0042   101.1438    37.5035   117.3312
    8.8773   146.3795    93.4810    37.5754   119.5524
    8.8874   150.1373    84.6498    37.8719   121.8359
    8.8974   151.9278    75.1504    38.3945   124.1859
    8.9074   151.6275    65.5800    39.1609   126.5628
    8.9174   149.3579    56.5182    40.1895   128.9271
    8.9274   145.3647    48.4911    41.4805   131.2798
    8.9374   140.1091    41.7943    43.0641   133.5496
    8.9474   134.0150    36.6021    44.9463   135.7073
    8.9574   127.5038    32.9207    47.1429   137.6871
    8.9675   120.9314    30.6633    49.6525   139.4257
    8.9775   114.5454    29.7175    52.4550   140.8533
    8.9875   108.5989    29.8638    55.5312   141.8483
    8.9975   103.2136    30.9482    58.7948   142.3344
    9.0075    98.4857    32.7872    62.1368   142.2108
    9.0175    94.5181    35.1422    65.4162   141.3804
    9.0275    91.2727    37.9277    68.3985   139.8594
    9.0375    88.7905    40.9364    70.8834   137.6681
    9.0476    87.0533    44.0250    72.6618   134.9438
    9.0576    86.0016    47.1012    73.5576   131.9349
    9.0676    85.6209    49.9937    73.5378   128.8887
    9.0776    85.8242    52.6188    72.6335   126.1078
    9.0876    86.5360    54.8537    70.9945   123.8216
    9.0976    87.6553    56.5852    68.8360   122.1694
    9.1076    89.0094    57.7705    66.3459   121.2580
    9.1176    90.4775    58.2836    63.7782   121.0038
    9.1277    91.8239    58.1613    61.2566   121.3921
    9.1377    92.8443    57.4530    58.9112   122.3064
    9.1477    93.3613    56.2811    56.8141   123.6422
    9.1577    93.2121    54.8957    54.9874   125.3220
    9.1677    92.3922    53.5034    53.4538   127.2361
    9.1777    90.9566    52.3555    52.2071   129.3039
    9.1877    89.0297    51.6714    51.2042   131.5050
    9.1977    86.8345    51.5206    50.4405   133.7590
    9.2078    84.5464    51.9634    49.8711   136.0715
    9.2178    82.3450    52.9528    49.4766   138.4272
    9.2278    80.3701    54.3936    49.2529   140.8091
    9.2378    78.6786    56.2279    49.1747   143.2578
    9.2478    77.3625    58.2755    49.2813   145.7150
    9.2578    76.4029    60.4792    49.5627   148.2048
    9.2678    75.7837    62.7485    50.0328   150.6986
    9.2778    75.4972    64.9666    50.7115   153.1405
    9.2879    75.4521    67.1536    51.5683   155.5318
    9.2979    75.6291    69.2397    52.5973   157.8133
    9.3079    75.9906    71.2210    53.7730   159.9447
    9.3179    76.4971    73.1311    55.0334   161.9258
    9.3279    77.1666    74.9386    56.3435   163.7228
    9.3379    78.0019    76.6316    57.6431   165.3473
    9.3479    79.0006    78.1740    58.8793   166.8215
    9.3579    80.1512    79.4944    60.0148   168.1747
    9.3680    81.3716    80.5660    60.9994   169.4775
    9.3780    82.5943    81.3100    61.8369   170.7706
    9.3880    83.6869    81.7331    62.5244   172.1278
    9.3980    84.5203    81.8831    63.0938   173.6094
    9.4080    84.9951    81.8543    63.5966   175.2651
    9.4180    85.0363    81.8178    64.0955   177.1314
    9.4280    84.6618    81.9296    64.6655   179.2119
    9.4380    83.9447    82.3417    65.3826   181.4792
    9.4481    83.0005    83.1709    66.2950   183.8931
    9.4581    81.9976    84.4367    67.4557   186.3758
    9.4681    81.0508    86.1678    68.8589   188.8686
    9.4781    80.2889    88.3045    70.4961   191.2964
    9.4881    79.7977    90.7758    72.3234   193.6063
    9.4981    79.6261    93.5030    74.2896   195.7581
    9.5081    79.8181    96.3727    76.3477   197.7314
    9.5181    80.3503    99.3313    78.4372   199.5359
    9.5282    81.1991   102.3136    80.5093   201.1937
    9.5382    82.3491   105.2493    82.5629   202.7151
    9.5482    83.7434   108.1352    84.5497   204.1308
    9.5582    85.3509   110.9618    86.4654   205.4518
    9.5682    87.1578   113.7283    88.2779   206.7022
    9.5782    89.1472   116.4576    89.9705   207.9098
    9.5882    91.3573   119.1291    91.5435   209.1071
    9.5982    93.7812   121.7584    92.9818   210.3334
    9.6083    96.4500   124.3101    94.2968   211.6161
    9.6183    99.3695   126.7438    95.4878   212.9778
    9.6283   102.5223   129.0096    96.5499   214.4395
    9.6383   105.8916   131.0442    97.4913   216.0318
    9.6483   109.3870   132.8349    98.2866   217.8058
    9.6583   112.9682   134.3615    98.9705   219.8228
    9.6683   116.5681   135.6573    99.5808   222.1449
    9.6783   120.1328   136.7848   100.1684   224.8184
    9.6884   123.6778   137.7915   100.8181   227.8631
    9.6984   127.2253   138.7247   101.6007   231.2785
    9.7084   130.7794   139.6178   102.5471   235.0474
    9.7184   134.3895   140.4669   103.7173   239.1607
    9.7284   138.0646   141.2724   105.1353   243.6137
    9.7384   141.8057   142.0429   106.8393   248.4151
    9.7484   145.6269   142.8045   108.8854   253.5792
    9.7584   149.5253   143.6075   111.3190   259.1005
    9.7685   153.6200   144.4890   114.2443   264.9848
    9.7785   157.9873   145.4799   117.7262   271.1923
    9.7885   162.7596   146.5570   121.8531   277.6808
    9.7985   168.1380   147.6245   126.7233   284.4122
    9.8085   174.1673   148.5189   132.4021   291.2987
    9.8185   181.0056   149.0012   138.9959   298.3089
    9.8285   188.6031   148.7874   146.5807   305.3458
    9.8385   196.8559   147.5785   155.2537   312.3220
    9.8486   205.5954   145.1070   165.1152   319.1305
    9.8586   214.4813   141.1626   176.2719   325.5933
    9.8686   223.1211   135.6389   188.8278   331.5000
    9.8786   231.1598   128.5669   202.8707   336.5985
    9.8886   238.1127   120.0864   218.4441   340.4965
    9.8986   243.7019   110.4785   235.5081   342.7979
    9.9086   247.6552   100.0941   253.8967   343.0053
    9.9186   249.8263    89.3236   273.2762   340.5871
    9.9287   250.2671    78.5653   293.0856   335.1662
    9.9387   248.8748    68.1910   312.5676   326.2514
    9.9487   245.9454    58.5582   330.7626   313.9584
    9.9587   241.5853    50.0085   346.6557   298.4825
    9.9687   236.0995    42.8333   359.3264   280.5016
    9.9787   229.9458    37.2271   368.1826   261.1598
    9.9887   223.4841    33.2784   373.0114   241.5541
    9.9987   217.1601    30.9193   374.0645   222.8437
   10.0088   211.4058    29.9308   372.0526   206.0911
   10.0188   206.4004    30.0550   367.7538   191.7598
   10.0288   202.3547    30.9442   362.1937   180.2237
   10.0388   199.2913    32.2866   356.2260   171.3802
   10.0488   197.1551    33.8095   350.6239   164.9540
   10.0588   195.8446    35.2959   345.9323   160.4617
   10.0688   195.2054    36.6019   342.5281   157.3547
   10.0788   195.1783    37.5951   340.6776   155.1062
   10.0889   195.5610    38.2350   340.3467   153.0888
   10.0989   196.2371    38.4715   341.3985   150.7517
   10.1089   197.1493    38.2499   343.7123   147.7276
   10.1189   198.0786    37.6000   346.7615   143.5373
   10.1289   198.9635    36.5267   350.2262   138.0568
   10.1389   199.6986    35.0925   353.6309   131.2186
   10.1489   200.1138    33.4229   356.3920   123.0098
   10.1589   200.3000    31.5706   358.4159   113.7684
   10.1690   200.1646    29.6641   359.2773   103.5980
   10.1790   199.7145    27.7871   358.8046    92.7109
   10.1890   199.0552    25.9722   356.9530    81.3574
   10.1990   198.1173    24.3126   353.2936    69.6706
   10.2090   197.0176    22.8204   347.7641    58.0493
   10.2190   195.7771    21.5435   340.1533    46.9502
   10.2290   194.4342    20.5113   330.4114    36.9509
   10.2390   193.1144    19.6961   318.9440    28.6819
   10.2491   191.8040    19.1104   306.0532    22.6111
   10.2591   190.5446    18.7237   292.3615    19.0420
   10.2691   189.4316    18.4696   278.6527    18.0286
   10.2791   188.4025    18.3488   265.3443    19.4387
   10.2891   187.5318    18.2850   253.0052    22.9822
   10.2991   186.8065    18.2211   241.9818    28.3001
   10.3091   186.1918    18.0880   232.4272    35.0272
   10.3191   185.6132    17.8218   224.4892    42.7956
   10.3292   184.9506    17.3929   218.1627    51.2796
   10.3392   184.1011    16.8030   213.5025    60.1624
   10.3492   182.9300    16.1432   210.4252    69.1743
   10.3592   181.3098    15.5884   208.8148    78.0662
   10.3692   179.3100    15.2896   208.6409    86.5839
   10.3792   176.9254    15.4891   209.6563    94.5269
   10.3892   174.3433    16.3243   211.6828   101.6984
   10.3992   171.7568    17.8821   214.4833   107.9517
   10.4093   169.3664    20.1678   217.7439   113.2020
   10.4193   167.3942    23.0880   221.2167   117.4553
   10.4293   165.9644    26.5314   224.5738   120.8185
   10.4393   165.1716    30.3500   227.5588   123.5062
   10.4493   165.0446    34.3965   230.0097   125.8224
   10.4593   165.5722    38.5286   231.8725   128.1112
   10.4693   166.7399    42.6051   233.3135   130.7113
   10.4793   168.4631    46.5405   234.5548   133.8638
   10.4894   170.6428    50.2910   235.8947   137.6776
   10.4994   173.2645    53.8114   237.7204   142.1363
   10.5094   176.2066    57.1418   240.2372   147.0583
   10.5194   179.5114    60.2627   243.7157   152.2044
   10.5294   183.1704    63.1787   248.2780   157.2654
   10.5394   187.1225    65.8868   253.8169   161.8524
   10.5494   191.4670    68.3139   260.3626   165.7011
   10.5594   196.1190    70.4367   267.5807   168.4869
   10.5695   201.0331    72.2225   275.1379   170.0291
   10.5795   206.2469    73.6331   282.7180   170.3374
   10.5895   211.6295    74.6736   289.8138   169.4519
   10.5995   217.3012    75.2969   296.2726   167.7256
   10.6095   223.1595    75.4687   301.8382   165.4204
   10.6195   229.1915    75.1069   306.5037   162.8562
   10.6295   235.3766    74.1132   310.4664   160.3352
   10.6396   241.5181    72.4080   313.7868   157.9103
   10.6496   247.5070    69.9453   316.7122   155.6674
   10.6596   253.1450    66.7427   319.3067   153.5328
   10.6696   258.2106    62.8778   321.5470   151.4185
   10.6796   262.6122    58.4695   323.4167   149.3302
   10.6896   266.1866    53.6647   324.7863   147.3072
   10.6996   268.8118    48.6339   325.5575   145.4832
   10.7096   270.3929    43.5860   325.7318   144.0620
   10.7196   270.8276    38.7873   325.3568   143.2039
   10.7297   270.1835    34.5561   324.6787   143.0722
   10.7397   268.5326    31.2424   323.8466   143.6504
   10.7497   266.0770    29.1725   322.9712   144.8407
   10.7597   263.2477    28.5798   322.2070   146.5975
   10.7697   260.3115    29.6023   321.3431   148.7359
   10.7797   257.7542    32.2275   320.3970   151.3394
   10.7897   255.9070    36.3506   319.2012   154.4723
   10.7997   255.0142    41.7960   317.6951   158.3018
   10.8098   255.3422    48.3479   315.9871   163.0736
   10.8198   256.9869    55.7993   314.1932   168.9375
   10.8298   260.0195    63.9601   312.5058   175.9804
   10.8398   264.4927    72.6724   311.1066   184.1808
   10.8498   270.3731    81.8006   310.1313   193.4316
   10.8598   277.7303    91.2523   309.6770   203.6354
   10.8698   286.5027   100.9492   309.6605   214.6323
   10.8799   296.6298   110.8513   309.8929   226.3191
   10.8899   308.0877   121.0054   310.1683   238.7971
   10.8999   320.6649   131.5105   310.0902   252.0879
   10.9099   334.2471   142.6813   309.3692   266.5397
   10.9199   348.6271   155.0473   307.6360   282.4748
   10.9299   363.5273   169.4216   304.5009   300.2701
   10.9399   378.7198   187.1804   299.4620   320.3956
   10.9499   393.6838   210.3408   291.7068   343.2459
   10.9599   407.3195   242.2370   279.7934   369.1949
   10.9700   416.4495   288.6905   260.8740   398.5592
   10.9800   410.0824   361.2819   228.3441   431.0512
   10.9900   315.8032   497.4017   149.3437   463.4556
  11.00      22.64      1042.      5.497      616.0   
# 
# YAMBO@anomaly.roma2.infn.it x 001 CPUs * 02/16/2011  16:40 [start]
#                                          02/16/2011  16:41 [end]
# 
# Cpu Timing [Min/Max/Average]: 01m-19s/01m-19s/01m-19s
#
# .-Input file : INPUTS/02_ALDA_diago
# | optics                       # [R OPT] Optics
# | bse                          # [R BSK] Bethe Salpeter Equation.
# | bss                          # [R BSS] Bethe Salpeter Equation solver
# | alda_fxc                     # [R TDDFT] The ALDA TDDFT kernel
# | BoseTemp= 0.000000     eV    # Bosonic Temperature
# | NonPDirs= "XYZ"              # [X/BSS] Non periodic chartesian directions (X,Y,Z,XY...)
# | BSresKmod= "x"               # [BSK] Resonant Kernel mode. (`x`;`c`;`d`)
# | BScplKmod= "none"            # [BSK] Coupling Kernel mode. (`x`;`c`;`d`;`u`)
# | % BSEBands
# |   10 |  50 |                 # [BSK] Bands range
# | %
# | BSENGexx=  3912        mHa   # [BSK] Exchange components
# | BSSmod= "d"                  # [BSS] Solvers `h/d/i/t`
# | % BEnRange
# |   3.00000 | 11.00000 | eV    # [BSS] Energy range
# | %
# | % BDmRange
# |   0.10000 |  0.10000 | eV    # [BSS] Damping range
# | %
# | BEnSteps=  800               # [BSS] Energy steps
# | % BLongDir
# | 0.5774E-5 |0.5774E-5 |0.5774E-5 |        # [BSS] [cc] Electric Field
# | %
