#                                                           
#  /$$     /$$ /$$$$$$  /$$      /$$ /$$$$$$$   /$$$$$$     
# |  $$   /$$//$$__  $$| $$$    /$$$| $$__  $$ /$$__  $$    
#  \  $$ /$$/| $$  \ $$| $$$$  /$$$$| $$  \ $$| $$  \ $$    
#   \  $$$$/ | $$$$$$$$| $$ $$/$$ $$| $$$$$$$ | $$  | $$    
#    \  $$/  | $$__  $$| $$  $$$| $$| $$__  $$| $$  | $$    
#     | $$   | $$  | $$| $$\  $ | $$| $$  \ $$| $$  | $$    
#     | $$   | $$  | $$| $$ \/  | $$| $$$$$$$/|  $$$$$$/    
#     |__/   |__/  |__/|__/     |__/|_______/  \______/     
#                                                           
#               Version 3.2.4 Revision 788                  
#               http://www.yambo-code.org                   
#
# Polarizability ( -<<X>> ) [volume @ Q(1) [q->0 direction]0.5774E-5 0.5774E-5 0.5774E-5
#
#
# - Energies      are Perdew & Wang (xc)
# - Wavefunctions are Perdew & Wang (xc)
#
# - The Green`s function is resonant -
# - Using the Length Gauge -
# - [r,Vnl] *is* included -
#
#   BSK|Identifier              :8847
#      |Dimension               :390
#      |Bands                   :10 - 50
#      |Exchange           [res]: yes
#      |Correlation        [res]: no
#      |Kernel`s coupling       : no
#      |Exchange           [cpl]: no
#      |W interaction is bare   : no
#      |Correlation        [cpl]: no
#      |ALDA kernel in R-space  : yes
#      |RL vectors    [exchange]:367
#      |E/h energy range    [ev]:-1.000000 - -1.000000
#      |Coupling range     [o/o]: 100.0000 -  100.0000
#  
#   Haydock|Accuracy (requested) [o/o]:  0.02000
#          |Accuracy (reached)   [o/o]:  0.01645
#          |Iteration                 :64
#
#  E/ev[1]    alpha /Im[2alpha /Re[3alpha0/Im[4alpha0/Re[5alpha`/Im[6alpha`/Re[7]
#
  3.000     0.2196E-1   32.79     0.6819E-1   92.93     0.2196E-1   32.81   
   3.01002    1.17794   32.85516    3.55656   93.36160    1.17776   32.87715
   3.02004    1.20580   32.39474    3.69719   92.15712    1.20561   32.41673
   3.03006    1.21347   32.26176    3.75594   91.92005    1.21329   32.28400
   3.04008    1.22005   32.18982    3.80714   91.89024    1.21987   32.21206
   3.05010    1.22618   32.15352    3.85536   91.96309    1.22599   32.17593
   3.06012    1.23209   32.13713    3.90230   92.09586    1.23191   32.15945
   3.07014    1.23789   32.13441    3.94859   92.27219    1.23770   32.15676
   3.08016    1.24365   32.13884    3.99474   92.47861    1.24346   32.16116
   3.09018    1.24937   32.15114    4.04095   92.70986    1.24917   32.17351
   3.10020    1.25507   32.16898    4.08741   92.96061    1.25488   32.19133
   3.11022    1.26077   32.19166    4.13431   93.22658    1.26058   32.21398
   3.12024    1.26643   32.22394    4.18155   93.51045    1.26624   32.24632
   3.13026    1.27215   32.25433    4.22942   93.80504    1.27195   32.27672
   3.14028    1.27790   32.28601    4.27798   94.10944    1.27770   32.30849
   3.15030    1.28367   32.31983    4.32713   94.42619    1.28347   32.34221
   3.16032    1.28948   32.35569    4.37705   94.75145    1.28928   32.37804
   3.17034    1.29524   32.40109    4.42762   95.08891    1.29504   32.42366
   3.18036    1.30110   32.44234    4.47908   95.43275    1.30089   32.46487
   3.19038    1.30701   32.48223    4.53137   95.78554    1.30681   32.50474
   3.20040    1.31295   32.52489    4.58454   96.14590    1.31274   32.54732
   3.21042    1.31886   32.57594    4.63854   96.51660    1.31865   32.59856
   3.22044    1.32486   32.62259    4.69358   96.89244    1.32465   32.64510
   3.23046    1.33091   32.66883    4.74956   97.27720    1.33071   32.69134
   3.24048    1.33696   32.72187    4.80648   97.67090    1.33675   32.74458
   3.25050    1.34310   32.77028    4.86456   98.06956    1.34289   32.79286
   3.26052    1.34927   32.82215    4.92373   98.47574    1.34906   32.84479
   3.27054    1.35544   32.87844    4.98384   98.89301    1.35523   32.90123
   3.28056    1.36172   32.92941    5.04531   99.31322    1.36151   32.95209
   3.29058    1.36804   32.98245    5.10789   99.74224    1.36783   33.00502
    3.3006     1.3744    33.0414     5.1716   100.1800     1.3741    33.0641
    3.3106     1.3808    33.0971     5.2367   100.6252     1.3805    33.1198
    3.3206     1.3872    33.1567     5.3030   101.0777     1.3870    33.1796
    3.3307     1.3937    33.2132     5.3707   101.5368     1.3935    33.2361
    3.3407     1.4003    33.2701     5.4398   102.0032     1.4001    33.2929
    3.3507     1.4068    33.3326     5.5103   102.4791     1.4066    33.3554
    3.3607     1.4135    33.3928     5.5822   102.9629     1.4133    33.4156
    3.3707     1.4202    33.4562     5.6557   103.4538     1.4200    33.4790
    3.3808     1.4270    33.5159     5.7307   103.9537     1.4268    33.5386
    3.3908     1.4338    33.5819     5.8074   104.4611     1.4335    33.6048
    3.4008     1.4407    33.6431     5.8856   104.9778     1.4404    33.6660
    3.4108     1.4476    33.7109     5.9656   105.5017     1.4473    33.7338
    3.4208     1.4546    33.7732     6.0474   106.0353     1.4544    33.7962
    3.4309     1.4616    33.8423     6.1310   106.5761     1.4614    33.8653
    3.4409     1.4687    33.9070     6.2164   107.1282     1.4685    33.9299
    3.4509     1.4759    33.9774     6.3038   107.6881     1.4756    34.0004
    3.4609     1.4831    34.0492     6.3931   108.2583     1.4828    34.0723
    3.4709     1.4904    34.1149     6.4847   108.8349     1.4902    34.1380
    3.4810     1.4977    34.1851     6.5782   109.4237     1.4975    34.2083
    3.4910     1.5052    34.2533     6.6741   110.0210     1.5049    34.2763
    3.5010     1.5126    34.3286     6.7721   110.6291     1.5124    34.3517
    3.5110     1.5202    34.4026     6.8724   111.2488     1.5199    34.4258
    3.5210     1.5278    34.4711     6.9754   111.8755     1.5276    34.4941
    3.5311     1.5355    34.5466     7.0807   112.5163     1.5352    34.5698
    3.5411     1.5432    34.6230     7.1886   113.1661     1.5430    34.6462
    3.5511     1.5511    34.6953     7.2993   113.8269     1.5508    34.7185
    3.5611     1.5589    34.7732     7.4127   114.4998     1.5587    34.7966
    3.5711     1.5669    34.8507     7.5289   115.1849     1.5666    34.8741
    3.5812     1.5750    34.9243     7.6483   115.8799     1.5747    34.9476
    3.5912     1.5831    35.0054     7.7707   116.5878     1.5828    35.0287
    3.6012     1.5912    35.0864     7.8961   117.3107     1.5910    35.1097
    3.6112     1.5996    35.1605     8.0252   118.0416     1.5993    35.1838
    3.6212     1.6079    35.2434     8.1574   118.7894     1.6076    35.2668
    3.6313     1.6163    35.3256     8.2934   119.5484     1.6160    35.3489
    3.6413     1.6248    35.4091     8.4328   120.3241     1.6245    35.4325
    3.6513     1.6334    35.4925     8.5762   121.1122     1.6331    35.5159
    3.6613     1.6421    35.5718     8.7237   121.9131     1.6418    35.5952
    3.6713     1.6508    35.6565     8.8752   122.7307     1.6505    35.6799
    3.6814     1.6596    35.7431     9.0309   123.5639     1.6594    35.7665
    3.6914     1.6685    35.8323     9.1910   124.4132     1.6682    35.8559
    3.7014     1.6775    35.9197     9.3559   125.2781     1.6772    35.9433
    3.7114     1.6867    36.0005     9.5257   126.1579     1.6864    36.0240
    3.7214     1.6959    36.0900     9.7003   127.0563     1.6956    36.1135
    3.7315     1.7051    36.1813     9.8802   127.9718     1.7048    36.2048
    3.7415     1.7145    36.2725    10.0654   128.9063     1.7142    36.2962
    3.7515     1.7239    36.3637    10.2564   129.8585     1.7237    36.3873
    3.7615     1.7335    36.4550    10.4531   130.8308     1.7332    36.4787
    3.7715     1.7432    36.5482    10.6561   131.8214     1.7429    36.5719
    3.7816     1.7529    36.6430    10.8654   132.8333     1.7526    36.6668
    3.7916     1.7628    36.7385    11.0815   133.8653     1.7625    36.7624
    3.8016     1.7728    36.8283    11.3046   134.9179     1.7725    36.8521
    3.8116     1.7829    36.9243    11.5349   135.9933     1.7826    36.9481
    3.8216     1.7930    37.0208    11.7728   137.0918     1.7927    37.0445
    3.8317     1.8033    37.1205    12.0186   138.2146     1.8030    37.1442
    3.8417     1.8137    37.2195    12.2728   139.3604     1.8134    37.2431
    3.8517     1.8242    37.3193    12.5356   140.5320     1.8239    37.3430
    3.8617     1.8348    37.4200    12.8075   141.7290     1.8345    37.4439
    3.8717     1.8455    37.5214    13.0890   142.9532     1.8452    37.5452
    3.8818     1.8564    37.6237    13.3806   144.2045     1.8561    37.6475
    3.8918     1.8673    37.7273    13.6826   145.4846     1.8670    37.7512
    3.9018     1.8784    37.8327    13.9958   146.7936     1.8781    37.8565
    3.9118     1.8896    37.9375    14.3204   148.1338     1.8893    37.9614
    3.9218     1.9009    38.0486    14.6569   149.5072     1.9006    38.0726
    3.9319     1.9124    38.1562    15.0065   150.9115     1.9120    38.1803
    3.9419     1.9239    38.2662    15.3698   152.3489     1.9236    38.2903
    3.9519     1.9356    38.3749    15.7470   153.8223     1.9353    38.3992
    3.9619     1.9475    38.4837    16.1391   155.3322     1.9472    38.5078
    3.9719     1.9595    38.5961    16.5473   156.8790     1.9592    38.6203
    3.9820     1.9717    38.7078    16.9718   158.4660     1.9713    38.7319
    3.9920     1.9839    38.8207    17.4141   160.0926     1.9836    38.8448
    4.0020     1.9963    38.9355    17.8748   161.7625     1.9960    38.9596
    4.0120     2.0089    39.0518    18.3555   163.4744     2.0086    39.0759
    4.0220     2.0215    39.1734    18.8563   165.2354     2.0212    39.1976
    4.0321     2.0344    39.2897    19.3799   167.0406     2.0341    39.3140
    4.0421     2.0474    39.4094    19.9266   168.8966     2.0471    39.4336
    4.0521     2.0606    39.5286    20.4985   170.8028     2.0603    39.5528
    4.0621     2.0740    39.6487    21.0965   172.7636     2.0736    39.6728
    4.0721     2.0874    39.7759    21.7229   174.7797     2.0871    39.8003
    4.0822     2.1011    39.9005    22.3793   176.8537     2.1007    39.9249
    4.0922     2.1150    40.0228    23.0678   178.9881     2.1146    40.0471
    4.1022     2.1290    40.1484    23.7904   181.1860     2.1286    40.1728
    4.1122     2.1431    40.2807    24.5498   183.4494     2.1427    40.3052
    4.1222     2.1575    40.4106    25.3484   185.7818     2.1571    40.4351
    4.1323     2.1721    40.5381    26.1894   188.1853     2.1717    40.5626
    4.1423     2.1868    40.6685    27.0756   190.6638     2.1865    40.6929
    4.1523     2.2017    40.8054    28.0102   193.2212     2.2013    40.8299
    4.1623     2.2169    40.9395    28.9976   195.8600     2.2165    40.9641
    4.1723     2.2322    41.0727    30.0420   198.5836     2.2319    41.0972
    4.1824     2.2478    41.2088    31.1475   201.3969     2.2474    41.2332
    4.1924     2.2635    41.3501    32.3194   204.3035     2.2631    41.3747
    4.2024     2.2795    41.4890    33.5638   207.3068     2.2791    41.5135
    4.2124     2.2958    41.6277    34.8871   210.4107     2.2954    41.6523
    4.2224     2.3122    41.7745    36.2951   213.6207     2.3118    41.7991
    4.2325     2.3289    41.9179    37.7972   216.9392     2.3285    41.9424
    4.2425     2.3457    42.0668    39.4009   220.3713     2.3453    42.0916
    4.2525     2.3630    42.2117    41.1168   223.9193     2.3625    42.2365
    4.2625     2.3804    42.3586    42.9549   227.5872     2.3800    42.3834
    4.2725     2.3981    42.5131    44.9261   231.3774     2.3977    42.5379
    4.2826     2.4161    42.6635    47.0428   235.2914     2.4157    42.6883
    4.2926     2.4343    42.8197    49.3170   239.3294     2.4339    42.8446
    4.3026     2.4530    42.9737    51.7608   243.4908     2.4525    42.9985
    4.3126     2.4719    43.1277    54.3852   247.7722     2.4715    43.1524
    4.3226     2.4911    43.2884    57.1981   252.1695     2.4907    43.3133
    4.3327     2.5107    43.4471    60.2055   256.6758     2.5103    43.4719
    4.3427     2.5306    43.6133    63.4069   261.2842     2.5301    43.6382
    4.3527     2.5510    43.7739    66.7997   265.9890     2.5505    43.7986
    4.3627     2.5716    43.9428    70.3758   270.7905     2.5712    43.9676
    4.3727     2.5928    44.1079    74.1260   275.6988     2.5923    44.1327
    4.3828     2.6143    44.2787    78.0405   280.7389     2.6138    44.3036
    4.3928     2.6363    44.4482    82.1189   285.9531     2.6358    44.4730
    4.4028     2.6586    44.6229    86.3715   291.3944     2.6581    44.6478
    4.4128     2.6814    44.7955    90.8298   297.1229     2.6809    44.8205
    4.4228     2.7046    44.9720    95.5475   303.1949     2.7041    44.9970
    4.4329     2.7280    45.1489   100.6007   309.6599     2.7275    45.1740
    4.4429     2.7517    45.3291   106.0798   316.5536     2.7512    45.3542
    4.4529     2.7755    45.5079   112.0830   323.8994     2.7750    45.5330
    4.4629     2.7993    45.6932   118.7117   331.7090     2.7988    45.7184
    4.4729     2.8231    45.8750   126.0688   339.9846     2.8226    45.8999
    4.4830     2.8467    46.0630   134.2613   348.7141     2.8462    46.0881
    4.4930     2.8702    46.2548   143.4050   357.8804     2.8697    46.2800
    4.5030     2.8938    46.4435   153.6257   367.4593     2.8933    46.4685
    4.5130     2.9174    46.6381   165.0695   377.4136     2.9168    46.6633
    4.5230     2.9412    46.8320   177.8969   387.6984     2.9407    46.8570
    4.5331     2.9653    47.0340   192.2964   398.2488     2.9647    47.0591
    4.5431     2.9897    47.2388   208.4776   408.9770     2.9892    47.2641
    4.5531     3.0149    47.4389   226.6801   419.7617     3.0143    47.4641
    4.5631     3.0404    47.6488   247.1786   430.4255     3.0398    47.6740
    4.5731     3.0665    47.8613   270.2678   440.7393     3.0659    47.8866
    4.5832     3.0933    48.0707   296.2678   450.3837     3.0927    48.0958
    4.5932     3.1206    48.2876   325.5294   458.9191     3.1200    48.3129
    4.6032     3.1485    48.5078   358.3732   465.7812     3.1480    48.5331
    4.6132     3.1772    48.7275   395.0875   470.2291     3.1766    48.7528
    4.6232     3.2064    48.9522   435.8914   471.2867     3.2058    48.9775
    4.6333     3.2363    49.1798   480.7866   467.7875     3.2357    49.2052
    4.6433     3.2668    49.4105   529.5056   458.3004     3.2662    49.4360
    4.6533     3.2980    49.6408   581.3297   441.2509     3.2974    49.6662
    4.6633     3.3299    49.8779   634.9654   414.9367     3.3292    49.9033
    4.6733     3.3623    50.1183   688.3589   377.8784     3.3617    50.1437
    4.6834     3.3957    50.3556   738.6711   329.1423     3.3950    50.3811
    4.6934     3.4295    50.6023   782.4407   268.6831     3.4289    50.6277
    4.7034     3.4641    50.8525   815.9744   197.8314     3.4634    50.8779
    4.7134     3.4994    51.1063   835.9415   119.2987     3.4987    51.1317
    4.7234     3.5355    51.3613   840.2496    37.3114     3.5348    51.3868
    4.7335     3.5725    51.6153   828.4597   -43.4649     3.5718    51.6407
    4.7435     3.6102    51.8788   801.8642  -118.6103     3.6095    51.9042
    4.7535     3.6486    52.1461   763.2930  -184.6142     3.6479    52.1716
    4.7635     3.6880    52.4162   716.3169  -239.4323     3.6873    52.4417
    4.7735     3.7282    52.6896   664.6157  -282.4561     3.7275    52.7152
    4.7836     3.7694    52.9630   611.3127  -314.2485     3.7687    52.9883
    4.7936     3.8115    53.2450   558.8306  -336.0692     3.8108    53.2705
    4.8036     3.8546    53.5305   508.7881  -349.5093     3.8539    53.5560
    4.8136     3.8987    53.8196   462.2263  -356.2145     3.8980    53.8451
    4.8236     3.9439    54.1135   419.5510  -357.6622     3.9431    54.1390
    4.8337     3.9901    54.4119   380.9567  -355.1791     3.9894    54.4374
    4.8437     4.0376    54.7142   346.2663  -349.7914     4.0368    54.7397
    4.8537     4.0863    55.0199   315.2921  -342.3819     4.0855    55.0455
    4.8637     4.1364    55.3259   287.6494  -333.5435     4.1357    55.3514
    4.8737     4.1878    55.6416   263.0625  -323.8195     4.1870    55.6671
    4.8838     4.2405    55.9622   241.1606  -313.5374     4.2397    55.9877
    4.8938     4.2948    56.2873   221.6723  -303.0123     4.2940    56.3128
    4.9038     4.3507    56.6172   204.2703  -292.3870     4.3498    56.6428
    4.9138     4.4082    56.9521   188.7504  -281.8663     4.4074    56.9776
    4.9238     4.4675    57.2919   174.8643  -271.5200     4.4666    57.3175
    4.9339     4.5286    57.6379   162.4014  -261.3946     4.5277    57.6633
    4.9439     4.5917    57.9872   151.2173  -251.5784     4.5908    58.0128
    4.9539     4.6567    58.3406   141.1455  -242.0733     4.6558    58.3662
    4.9639     4.7236    58.7004   132.0543  -232.8923     4.7227    58.7258
    4.9739     4.7924    59.0658   123.8280  -224.0345     4.7915    59.0913
    4.9840     4.8630    59.4340   116.3859  -215.5374     4.8620    59.4596
    4.9940     4.9351    59.8085   109.6182  -207.3448     4.9341    59.8340
    5.0040     5.0085    60.1880   103.4600  -199.4686     5.0075    60.2135
    5.0140     5.0828    60.5733    97.8434  -191.8909     5.0818    60.5988
    5.0240     5.1579    60.9627    92.7242  -184.6322     5.1569    60.9883
    5.0341     5.2335    61.3603    88.0332  -177.6294     5.2325    61.3857
    5.0441     5.3097    61.7644    83.7386  -170.9002     5.3087    61.7898
    5.0541     5.3868    62.1759    79.7982  -164.4202     5.3858    62.2013
    5.0641     5.4653    62.5949    76.1778  -158.1737     5.4642    62.6202
    5.0741     5.5455    63.0246    72.8533  -152.1653     5.5444    63.0499
    5.0842     5.6282    63.4628    69.7875  -146.3483     5.6271    63.4881
    5.0942     5.7139    63.9091    66.9688  -140.7468     5.7127    63.9344
    5.1042     5.8030    64.3651    64.3669  -135.3167     5.8019    64.3903
    5.1142     5.8961    64.8303    61.9720  -130.0742     5.8949    64.8554
    5.1242     5.9932    65.3099    59.7571  -124.9703     5.9920    65.3352
    5.1343     6.0951    65.7944    57.7229  -120.0491     6.0939    65.8198
    5.1443     6.2021    66.2869    55.8449  -115.2564     6.2009    66.3122
    5.1543     6.3144    66.7878    54.1166  -110.6001     6.3131    66.8130
    5.1643     6.4323    67.2986    52.5277  -106.0695     6.4310    67.3239
    5.1743     6.5560    67.8191    51.0728  -101.6695     6.5548    67.8441
   5.18437    6.68609   68.34708   49.73707  -97.36243    6.68476   68.37218
   5.19439    6.82269   68.88069   48.51833  -93.15865    6.82133   68.90573
   5.20441    6.96539   69.42921   47.40858  -89.04118    6.96401   69.45421
   5.21443    7.11471   69.97955   46.40798  -85.02484    7.11330   70.00458
   5.22445    7.26989   70.53570   45.50780  -81.08486    7.26846   70.56055
   5.23447    7.43014   71.09589   44.70630  -77.22336    7.42867   71.12068
   5.24449    7.59392   71.66142   43.99932  -73.43099    7.59242   71.68620
   5.25451    7.75933   72.23373   43.38303  -69.69927    7.75780   72.25836
   5.26453    7.92411   72.81554   42.85504  -66.02598    7.92255   72.84032
   5.27455    8.08681   73.40028   42.41495  -62.41809    8.08521   73.42482
   5.28457    8.24568   73.99524   42.05697  -58.85949    8.24405   74.01972
   5.29459    8.40013   74.60519   41.77760  -55.34468    8.39848   74.62970
   5.30461    8.55078   75.23556   41.57294  -51.86401    8.54909   75.26021
   5.31463    8.69986   75.88247   41.44398  -48.42613    8.69814   75.90690
   5.32465    8.84958   76.55189   41.38684  -45.00900    8.84782   76.57618
   5.33467    9.00265   77.24429   41.40308  -41.60484    9.00084   77.26859
   5.34469    9.16121   77.96431   41.49424  -38.19258    9.15937   77.98866
   5.35471    9.32788   78.70504   41.67236  -34.78605    9.32602   78.72929
   5.36473    9.50391   79.47098   41.94141  -31.35612    9.50200   79.49518
   5.37475    9.69073   80.25893   42.31582  -27.91344    9.68882   80.28285
   5.38477    9.88893   81.07420   42.80006  -24.42486    9.88697   81.09814
   5.39479   10.09981   81.91086   43.41333  -20.91516   10.09783   81.93475
   5.40481   10.32396   82.77146   44.16462  -17.36608   10.32193   82.79522
   5.41483   10.56187   83.65958   45.07021  -13.78451   10.55980   83.68320
   5.42485   10.81504   84.56814   46.14183  -10.15561   10.81292   84.59159
   5.43487   11.08386   85.50305   47.40131   -6.49446   11.08166   85.52642
   5.44489   11.36893   86.46799   48.85836   -2.76938   11.36664   86.49138
   5.45491   11.67207   87.45473   50.54772    0.97530   11.66973   87.47784
   5.46493   11.99374   88.47136   52.48898    4.75660   11.99134   88.49433
   5.47495   12.33504   89.51936   54.70599    8.57943   12.33253   89.54241
   5.48497   12.69809   90.59163   57.23539   12.41856   12.69552   90.61436
   5.49499   13.08383   91.69407   60.11170   16.26057   13.08120   91.71667
   5.50501   13.49283   92.83595   63.36858   20.09379   13.49013   92.85841
   5.51503   13.92850   94.00282   67.05012   23.87861   13.92573   94.02515
   5.52505   14.39166   95.20337   71.19633   27.57950   14.38884   95.22546
   5.53507   14.88351   96.44373   75.84225   31.16130   14.88060   96.46601
   5.54509   15.40695   97.71851   81.03226   34.55778   15.40407   97.74031
   5.55511   15.96365   99.03403   86.79763   37.71518   15.96067   99.05576
    5.5651    16.5571   100.3866    93.1839    40.5497    16.5541   100.4080
    5.5752    17.1903   101.7827   100.2206    42.9930    17.1872   101.8038
    5.5852    17.8670   103.2281   107.9559    44.9397    17.8638   103.2487
    5.5952    18.5935   104.7196   116.4456    46.2527    18.5901   104.7400
    5.6052    19.3751   106.2646   125.7159    46.7716    19.3715   106.2846
    5.6152    20.2202   107.8592   135.8069    46.2376    20.2163   107.8789
    5.6253    21.1364   109.5090   146.6480    44.3673    21.1321   109.5286
    5.6353    22.1337   111.2098   158.1120    40.7836    22.1290   111.2292
    5.6453    23.2208   112.9676   169.8839    35.1144    23.2158   112.9870
    5.6553    24.4113   114.7723   181.5232    26.9954    24.4059   114.7916
    5.6653    25.7163   116.6263   192.3552    16.2175    25.7107   116.6457
    5.6754    27.1512   118.5192   201.6054     2.7820    27.1456   118.5382
    5.6854    28.7297   120.4490   208.3937   -12.9564    28.7239   120.4681
    5.6954    30.4704   122.3971   212.0069   -30.3208    30.4645   122.4167
    5.7054    32.3886   124.3531   211.9905   -48.3345    32.3831   124.3724
    5.7154    34.5034   126.2879   208.2940   -65.8922    34.4984   126.3071
    5.7255    36.8277   128.1788   201.2816   -81.9697    36.8234   128.1976
    5.7355    39.3745   129.9832   191.6545   -95.8110    39.3712   130.0009
    5.7455    42.1449   131.6593   180.2606  -106.9972    42.1427   131.6752
    5.7555    45.1315   133.1482   167.9324  -115.4376    45.1298   133.1611
    5.7655    48.3053   134.3954   155.3717  -121.2872    48.3027   134.4040
    5.7756    51.6185   135.3368   143.1402  -124.8979    51.6128   135.3409
    5.7856    54.9922   135.9283   131.5794  -126.6377    54.9795   135.9287
    5.7956    58.3272   136.1354   120.8921  -126.8839    58.3047   136.1347
    5.8056    61.5021   135.9655   111.1682  -125.9810    61.4677   135.9702
    5.8156    64.3940   135.4658   102.4327  -124.2466    64.3507   135.4832
    5.8257    66.8946   134.7302    94.6475  -121.9221    66.8512   134.7669
    5.8357    68.9265   133.9002    87.7373  -119.1742    68.8957   133.9569
    5.8457    70.4702   133.1356    81.6399  -116.1926    70.4649   133.2040
    5.8557    71.5567   132.6119    76.2596  -113.0655    71.5826   132.6759
    5.8657    72.2783   132.4773    71.5158  -109.8923    72.3302   132.5185
    5.8758    72.7707   132.8382    67.3264  -106.7433    72.8330   132.8434
    5.8858    73.1831   133.7589    63.6089  -103.6627    73.2353   133.7247
    5.8958    73.6729   135.2457    60.2875  -100.6865    73.6956   135.1799
    5.9058    74.3729   137.2729    57.2874   -97.8231    74.3534   137.1929
    5.9158    75.3971   139.7821    54.5431   -95.0693    75.3324   139.7086
    5.9259    76.8333   142.7012    52.0026   -92.4219    76.7303   142.6545
    5.9359    78.7371   145.9622    49.6228   -89.8424    78.6107   145.9586
    5.9459    81.1536   149.4940    47.3845   -87.3234    81.0257   149.5412
    5.9559    84.1146   153.2361    45.2757   -84.8366    84.0087   153.3328
    5.9659    87.6388   157.1469    43.2929   -82.3523    87.5765   157.2810
    5.9760    91.7542   161.1898    41.4413   -79.8676    91.7491   161.3399
    5.9860    96.4994   165.3398    39.7296   -77.4018    96.5563   165.4788
    5.9960   101.9251   169.5800    38.1535   -74.9271   102.0327   169.6805
    6.0060   108.1089   173.8863    36.7170   -72.4693   108.2476   173.9267
    6.0160   115.1529   178.2183    35.4168   -70.0355   115.2956   178.1884
    6.0261   123.1723   182.5074    34.2454   -67.6163   123.2919   182.4100
    6.0361   132.3075   186.6408    33.1992   -65.2284   132.3794   186.4904
    6.0461   142.7037   190.4530    32.2708   -62.8698   142.7116   190.2723
    6.0561   154.5080   193.7156    31.4559   -60.5530   154.4461   193.5307
    6.0661   167.8469   196.1275    30.7475   -58.2702   167.7170   195.9640
    6.0762   182.8189   197.3102    30.1429   -56.0344   182.6305   197.1912
    6.0862   199.4479   196.7999    29.6340   -53.8210   199.2198   196.7441
    6.0962   217.6513   194.0525    29.2240   -51.6691   217.4039   194.0700
    6.1062   237.1495   188.4447    28.9060   -49.5499   236.9112   188.5412
    6.1162   257.4461   179.3386    28.6804   -47.4798   257.2490   179.5087
    6.1263   277.7518   166.1500    28.5445   -45.4537   277.6236   166.3763
    6.1363   296.9853   148.5038    28.5002   -43.5019   296.9507   148.7572
    6.1463   313.7957   126.3745    28.5397   -41.5998   313.8666   126.6140
    6.1563   326.7607   100.2546    28.6595   -39.7663   326.9301   100.4334
    6.1663   334.6082    71.2079    28.8531   -38.0240   334.8405    71.2819
    6.1764   336.5202    40.7968    29.1057   -36.3689   336.7750    40.7423
    6.1864   332.3228    10.8180    29.4016   -34.8180   332.5311    10.6303
    6.1964   322.4884   -17.0169    29.7160   -33.3542   322.6041   -17.3131
    6.2064   308.1169   -41.3739    30.0300   -31.9963   308.0996   -41.7316
    6.2164   290.5625   -61.4660    30.3177   -30.6978   290.3963   -61.8301
    6.2265   271.2157   -77.0654    30.5691   -29.4548   270.9033   -77.3779
    6.2365   251.2830   -88.3807    30.7844   -28.2523   250.8541   -88.5927
    6.2465   231.6765   -95.8844    30.9685   -27.0362   231.1727   -95.9604
    6.2565   213.0262  -100.1781    31.1427   -25.7986   212.4969  -100.0989
    6.2665   195.7177  -101.8891    31.3309   -24.5346   195.2175  -101.6534
    6.2766   179.9187  -101.5762    31.5578   -23.2649   179.4995  -101.2009
    6.2866   165.6949   -99.7454    31.8325   -21.9748   165.4013   -99.2651
    6.2966   152.9825   -96.7719    32.1650   -20.7182   152.8422   -96.2304
    6.3066   141.7108   -92.9903    32.5419   -19.4843   141.7392   -92.4461
    6.3166   131.7466   -88.6166    32.9480   -18.3023   131.9348   -88.1266
    6.3267   122.9844   -83.8471    33.3559   -17.1560   123.3033   -83.4633
    6.3367   115.3043   -78.8084    33.7467   -16.0569   115.7077   -78.5688
    6.3467   108.6030   -73.6013    34.0986   -14.9478   109.0348   -73.5226
    6.3567   102.7890   -68.3011    34.4150   -13.8159   103.1944   -68.3815
   6.36673   97.78195  -62.96022   34.70888  -12.61126   98.11205  -63.17846
   6.37675   93.51231  -57.61538   35.01455  -11.32160   93.73091  -57.93834
   6.38677   89.92384  -52.29724   35.37126   -9.92354   90.00827  -52.68453
   6.39679   86.97242  -47.03337   35.82178   -8.40810   86.91294  -47.44325
   6.40681   84.61562  -41.83258   36.41223   -6.80159   84.41351  -42.22501
   6.41683   82.83525  -36.73326   37.18086   -5.12582   82.50021  -37.07166
   6.42685   81.59396  -31.71914   38.15928   -3.40196   81.14236  -31.96969
   6.43687   80.88786  -26.83300   39.37605   -1.67039   80.34261  -26.96640
  6.447      80.70     -22.09      40.86     0.2036E-1   80.09     -22.08   
   6.45691   81.03232  -17.51480   42.61396    1.62069   80.39284  -17.33839
   6.46693   81.86794  -13.14125   44.66202    3.06927   81.24377  -12.78257
   6.47695   83.20658   -9.01940   46.99866    4.29176   82.65150   -8.47128
   6.48697   85.03032   -5.18901   49.60372    5.21078   84.60814   -4.45863
   6.49699   87.31541   -1.70235   52.43458    5.73564   87.09620   -0.81660
   6.50701   90.02514    1.38951   55.41426    5.78415   90.08054    2.37401
   6.51703   93.11127    4.03470   58.43121    5.27681   93.49982    5.02845
   6.52705   96.51214    6.19612   61.33385    4.17417   97.26070    7.07591
    6.5371   100.1575     7.8588    63.9423     2.4927   101.2419     8.4759
    6.5471   103.9874     9.0186    66.0770     0.3053   105.3128     9.2230
    6.5571   107.9518     9.6976    67.5886    -2.2454   109.3490     9.3738
    6.5671   112.0334     9.9158    68.3889    -4.9545   113.2758     9.0217
    6.5772   116.2394     9.6865    68.4743    -7.5884   117.0842     8.2826
    6.5872   120.6022     8.9864    67.9323    -9.9364   120.8415     7.2425
    6.5972   125.1456     7.7571    66.9201   -11.8457   124.6574     5.9313
    6.6072   129.8718     5.8853    65.6285   -13.2384   128.6546     4.2785
    6.6172   134.7313     3.2155    64.2440   -14.1102   132.9115     2.1166
    6.6273   139.5906    -0.4206    62.9216   -14.5165   137.4081    -0.7889
    6.6373   144.2081    -5.1546    61.7703   -14.5555   141.9795    -4.6806
    6.6473   148.2869   -11.0760    60.8548   -14.3638   146.3526    -9.7880
    6.6573   151.4488   -18.1314    60.1786   -14.0489   150.1097   -16.2009
    6.6673   153.3143   -26.1103    59.7042   -13.7058   152.7726   -23.8283
    6.6774   153.5859   -34.6508    59.3653   -13.4054   153.8981   -32.3673
    6.6874   152.1169   -43.2798    59.0775   -13.1709   153.1876   -41.3310
    6.6974   148.9491   -51.4899    58.7619   -12.9842   150.5585   -50.1251
    6.7074   144.2955   -58.8131    58.3632   -12.7856   146.1602   -58.1540
    6.7174   138.5135   -64.9170    57.8722   -12.5111   140.3559   -64.9602
    6.7275   132.0291   -69.6363    57.3079   -12.0537   133.6204   -70.2747
    6.7375   125.2500   -72.9507    56.7439   -11.3788   126.4394   -74.0222
    6.7475   118.5149   -74.9372    56.2615   -10.4478   119.2305   -76.2665
    6.7575   112.1157   -75.7960    55.9587    -9.2912   112.3446   -77.2171
    6.7675   106.2301   -75.7223    55.9128    -7.9349   106.0037   -77.0933
    6.7776   100.9753   -74.9339    56.1891    -6.4369   100.3537   -76.1444
   6.78758   96.40471  -73.62922   56.84283   -4.89171   95.46223  -74.59390
   6.79760   92.53484  -72.00312   57.89986   -3.37669   91.35554  -72.65940
   6.80762   89.34218  -70.21751   59.37735   -2.00836   88.01620  -70.52517
   6.81764   86.77863  -68.41794   61.25827   -0.88083   85.40092  -68.35506
   6.82766   84.78386  -66.75823   63.51152   -0.13248   83.45349  -66.32359
   6.83768   83.25992  -65.34235   66.05501    0.13361   82.07783  -64.55875
   6.84770   82.08878  -64.26095   68.78487   -0.22823   81.15240  -63.17877
   6.85772   81.13210  -63.57643   71.51389   -1.25982   80.52525  -62.27628
   6.86774   80.23446  -63.30891   74.04518   -3.03200   80.01453  -61.90025
   6.87776   79.23328  -63.41746   76.12815   -5.47896   79.41727  -62.02865
   6.88778   77.99815  -63.84331   77.55304   -8.50989   78.55376  -62.60542
   6.89780   76.42407  -64.45038   78.12744  -11.87240   77.27097  -63.47365
   6.90782   74.46510  -65.08273   77.78434  -15.32131   75.48907  -64.43840
   6.91784   72.13972  -65.59221   76.54317  -18.55012   73.21463  -65.30083
   6.92786   69.51209  -65.83995   74.53159  -21.30813   70.52383  -65.87453
   6.93788   66.69285  -65.76076   71.95374  -23.44163   67.55552  -66.06194
   6.94790   63.79040  -65.30290   69.02258  -24.85006   64.45238  -65.79332
   6.95792   60.91225  -64.47186   65.94890  -25.53123   61.35376  -65.07543
   6.96794   58.14543  -63.30084   62.90464  -25.53177   58.37022  -63.94925
   6.97796   55.54652  -61.81390   60.01841  -24.92877   55.57386  -62.45401
   6.98798   53.16713  -60.09569   57.37994  -23.82121   53.02328  -60.68832
   6.99800   51.02698  -58.18916   55.04489  -22.31387   50.74065  -58.70742
   7.00802   49.13545  -56.13893   53.03551  -20.48189   48.73420  -56.56567
   7.01804   47.48970  -53.97120   51.35574  -18.38649   46.99852  -54.29500
   7.02806   46.09250  -51.74617   50.01144  -16.11970   45.53365  -51.96146
   7.03808   44.93460  -49.48453   48.98355  -13.70185   44.32768  -49.58708
   7.04810   44.00459  -47.19312   48.26395  -11.18613   43.36726  -47.18041
   7.05812   43.29996  -44.91017   47.83509   -8.58609   42.64884  -44.78045
   7.06814   42.81333  -42.64703   47.69196   -5.94304   42.16476  -42.39825
   7.07816   42.54099  -40.42380   47.81964   -3.24537   41.91233  -40.05457
   7.08818   42.47521  -38.23829   48.22147   -0.52257   41.88554  -37.74714
   7.09820   42.61949  -36.13440   48.89796    2.22751   42.09078  -35.52176
   7.10822   42.96872  -34.12362   49.86425    4.97850   42.52662  -33.39237
   7.11824   43.51614  -32.22009   51.12402    7.75476   43.19022  -31.37763
   7.12826   44.25747  -30.46823   52.71518   10.48176   44.08144  -29.53029
   7.13828   45.17770  -28.89651   54.64765   13.16829   45.18755  -27.88901
   7.14830   46.25100  -27.53064   56.94747   15.76464   46.48145  -26.49349
   7.15832   47.44709  -26.42458   59.63234   18.22497   47.92640  -25.41470
   7.16834   48.71121  -25.59169   62.72081   20.46756   49.45226  -24.68317
   7.17836   49.97775  -25.04822   66.20615   22.42893   50.96774  -24.32807
   7.18838   51.17639  -24.81680   70.06425   24.02495   52.36783  -24.37539
   7.19840   52.22193  -24.85602   74.25126   25.15224   53.52798  -24.77048
   7.20842   53.03603  -25.09808   78.68140   25.72897   54.33588  -25.41389
   7.21844   53.57254  -25.48729   83.23698   25.68541   54.72809  -26.20211
   7.22846   53.80653  -25.91756   87.77740   24.98206   54.68610  -26.97646
   7.23848   53.74725  -26.27447   92.14156   23.63897   54.24910  -27.57555
   7.24850   53.44682  -26.48557   96.18613   21.71841   53.51546  -27.90038
   7.25852   52.97576  -26.48362   99.79142   19.33785   52.60481  -27.87780
    7.2685    52.4123   -26.2170   102.8928    16.6287    51.6371   -27.4696
    7.2786    51.8457   -25.6967   105.4709    13.7293    50.7310   -26.7113
    7.2886    51.3451   -24.9152   107.5259    10.7935    49.9710   -25.6227
    7.2986    50.9805   -23.9243   109.1053     7.9403    49.4330   -24.2828
    7.3086    50.7975   -22.7447   110.2831     5.2823    49.1613   -22.7321
    7.3186    50.8334   -21.4124   111.1605     2.9272    49.1892   -21.0225
    7.3287    51.1255   -19.9970   111.8851     0.9467    49.5502   -19.2367
    7.3387    51.6898   -18.5205   112.6252    -0.6214    50.2571   -17.4057
    7.3487    52.5512   -17.0534   113.5885    -1.8382    51.3341   -15.6101
    7.3587    53.7182   -15.6325   114.9472    -2.8149    52.7901   -13.8976
    7.3687    55.2001   -14.3164   116.8246    -3.7285    54.6344   -12.3403
    7.3788    57.0017   -13.1806   119.2967    -4.8411    56.8720   -11.0342
    7.3888    59.1099   -12.2821   122.3161    -6.4070    59.4831   -10.0595
    7.3988    61.5046   -11.7118   125.7524    -8.7061    62.4332    -9.5367
    7.4088    64.1375   -11.5457   129.3472   -11.9524    65.6455    -9.5726
    7.4188    66.9399   -11.8795   132.7727   -16.2965    69.0042   -10.2898
    7.4289    69.8019   -12.7767   135.6056   -21.7056    72.3330   -11.7635
    7.4389    72.5868   -14.2970   137.4778   -28.0281    75.4140   -14.0389
    7.4489    75.1263   -16.4515   138.0859   -34.9256    77.9984   -17.0739
    7.4589    77.2321   -19.1806   137.2832   -41.9554    79.8384   -20.7131
    7.4689    78.7425   -22.3943   135.1324   -48.6862    80.7624   -24.7430
    7.4790    79.5199   -25.9070   131.8266   -54.7258    80.6826   -28.8497
    7.4890    79.5070   -29.5217   127.7017   -59.8760    79.6476   -32.7417
    7.4990    78.7085   -32.9978   123.0513   -64.0130    77.7981   -36.1396
    7.5090    77.2189   -36.1501   118.1801   -67.2031    75.3600   -38.8832
    7.5190    75.1752   -38.8188   113.2723   -69.5240    72.5700   -40.8859
    7.5291    72.7498   -40.9247   108.4738   -71.1332    69.6542   -42.1639
    7.5391    70.1026   -42.4241   103.8290   -72.1146    66.7862   -42.7692
   7.54910   67.38811  -43.35270   99.37827  -72.57171   64.10286  -42.81873
   7.55912   64.71973  -43.75102   95.13342  -72.55927   61.68323  -42.41307
   7.56914   62.18755  -43.69870   91.12126  -72.14943   59.57653  -41.67421
   7.57916   59.84099  -43.24842   87.33855  -71.34757   57.79094  -40.68234
   7.58918   57.72242  -42.49462   83.80963  -70.20729   56.32798  -39.54985
   7.59920   55.84160  -41.48182   80.54306  -68.74877   55.15793  -38.33194
   7.60922   54.20765  -40.27896   77.56055  -67.02119   54.24938  -37.10345
   7.61924   52.80955  -38.90671   74.86289  -65.02201   53.54833  -35.88182
   7.62926   51.64514  -37.41942   72.46809  -62.78856   53.00888  -34.70946
   7.63928   50.70588  -35.85063   70.39577  -60.36940   52.58120  -33.59418
   7.64930   49.97492  -34.20052   68.64352  -57.76399   52.21579  -32.49883
   7.65932   49.44769  -32.50409   67.22395  -55.01950   51.89000  -31.41132
   7.66934   49.11065  -30.75665   66.13579  -52.15205   51.58953  -30.27660
   7.67936   48.96207  -28.98593   65.37811  -49.18063   51.32952  -29.07881
   7.68938   48.98965  -27.17293   64.95731  -46.14064   51.12563  -27.76598
   7.69940   49.19468  -25.33745   64.86520  -43.02122   51.01257  -26.33916
   7.70942   49.57902  -23.49168   65.11621  -39.86255   51.02442  -24.80501
   7.71944   50.13696  -21.61315   65.70444  -36.63827   51.18174  -23.14361
   7.72946   50.87869  -19.72440   66.65847  -33.39936   51.51511  -21.38706
   7.73948   51.80386  -17.80403   67.97822  -30.10828   52.03738  -19.52466
   7.74950   52.92884  -15.87610   69.69975  -26.80599   52.77299  -17.59197
   7.75952   54.25734  -13.91556   71.84689  -23.48938   53.72946  -15.57236
   7.76954   55.80828  -11.93474   74.46061  -20.18275   54.92736  -13.48633
   7.77956   57.60259   -9.94201   77.58143  -16.90247   56.38746  -11.34756
   7.78958   59.65765   -7.92394   81.26450  -13.68998   58.12566   -9.14465
   7.79960   62.00277   -5.89145   85.56655  -10.59000   60.17096   -6.89020
   7.80962   64.67429   -3.85782   90.55672   -7.67799   62.55862   -4.59603
   7.81964   67.70283   -1.81362   96.28838   -5.02146   65.32048   -2.25015
    7.8297    71.1429     0.2088   102.8279    -2.7461    68.5128     0.1185
    7.8397    75.0395     2.2112   110.2218    -0.9903    72.1838     2.5192
  7.850      79.46      4.163      118.5     0.9416E-1   76.41      4.925   
    7.8597    84.4863     6.0197   127.6192     0.2725    81.2779     7.3011
    7.8697    90.1971     7.7571   137.5385    -0.6229    86.8859     9.6285
    7.8798    96.7034     9.3100   148.1465    -2.8287    93.3615    11.8478
    7.8898   104.1388    10.5978   159.2442    -6.4911   100.8639    13.8828
    7.8998   112.6504    11.5391   170.6625   -11.7363   109.5725    15.6498
    7.9098   122.4383    12.0071   182.1764   -18.5264   119.7254    17.0130
    7.9198   133.7680    11.8441   193.7542   -26.7811   131.6299    17.7976
    7.9299   146.9862    10.8758   205.4894   -36.2931   145.6781    17.7948
    7.9399   162.6471     8.8642   217.9250   -46.9355   162.4637    16.7198
    7.9499   181.6807     5.5256   232.0382   -58.6659   182.9415    14.2360
    7.9599   205.8449     0.5489   249.7928   -71.7911   208.8850     9.9942
    7.9699   239.1990    -6.3476   275.4733   -87.2696   244.3575     3.7837
    7.9800   294.1392   -14.4494   321.5855  -107.3992   301.8111    -3.1048
    7.9900   471.8551     5.5335   494.3849  -135.4417   481.4897    26.1746
    8.0000    29.8653  -746.7406    19.3825  -668.9391    34.3444  -806.8321
# 
# YAMBO@anomaly.roma2.infn.it x 001 CPUs * 02/16/2011  16:41 [start]
#                                          02/16/2011  16:42 [end]
# 
# Cpu Timing [Min/Max/Average]: 01m-35s/01m-35s/01m-35s
#
# .-Input file : INPUTS/03_ALDA_haydo
# | optics                       # [R OPT] Optics
# | bse                          # [R BSK] Bethe Salpeter Equation.
# | bss                          # [R BSS] Bethe Salpeter Equation solver
# | alda_fxc                     # [R TDDFT] The ALDA TDDFT kernel
# | BoseTemp= 0.000000     eV    # Bosonic Temperature
# | NonPDirs= "XYZ"              # [X/BSS] Non periodic chartesian directions (X,Y,Z,XY...)
# | BSresKmod= "x"               # [BSK] Resonant Kernel mode. (`x`;`c`;`d`)
# | BScplKmod= "none"            # [BSK] Coupling Kernel mode. (`x`;`c`;`d`;`u`)
# | % BSEBands
# |   10 |  50 |                 # [BSK] Bands range
# | %
# | BSENGexx= 1535         mHa   # [BSK] Exchange components
# | BSSmod= "h"                  # [BSS] Solvers `h/d/i/t`
# | % BEnRange
# |  3.000000 | 8.000000 | eV    # [BSS] Energy range
# | %
# | % BDmRange
# |   0.10000 |  0.10000 | eV    # [BSS] Damping range
# | %
# | BEnSteps=  500               # [BSS] Energy steps
# | % BLongDir
# | 0.5774E-5 |0.5774E-5 |0.5774E-5 |        # [BSS] [cc] Electric Field
# | %
# | BSHayTrs=  0.02000           # [BSS] [o/o] Haydock treshold. Strict(>0)/Average(<0)
# | BSHayTer                     # [BSS] Terminate Haydock continuos fraction
