#                                                                     
# :   :::   :::     ::::    ::::  :::::::::   ::::::::                
# :+:   :+: :+: :+:   +:+:+: :+:+:+ :+:    :+: :+:    :+              
#  +:+ +:+ +:+   +:+  +:+ +:+:+ +:+ +:+    +:+ +:+    +:+             
#   +#++: +#++:++#++: +#+  +:+  +#+ +#++:++#+  +#+    +:+             
#    +#+  +#+     +#+ +#+       +#+ +#+    +#+ +#+    +#+             
#    #+#  #+#     #+# #+#       #+# #+#    #+# #+#    #+#             
#    ###  ###     ### ###       ### #########   ########              
#                                                                     
#                                                                     
# Version 5.2.0 Revision 22368 Hash (prev commit) b42959ab6a          
#                    Branch is develop                                
#         MPI+OpenMP+SLK+SLEPC+HDF5_MPI_IO Build                      
#                http://www.yambo-code.org                            
#
# Polarizability  ( -<<X>> ) @ Q(1):  0.999999975E-5   0.00000000      0.00000000    [q->0 direction]
#
# Polarizability units: volume
#
# [GEN] GF Energies                               : Perdew, Burke & Ernzerhof(X)+Perdew, Burke & Ernzerhof(C)
# [GEN] Green`s Function                          : Retarded
#
# [GEN] Gauge                                     : Length
# [GEN] [r,Vnl] included                          : yes
#
# DIP band range                                  :   1  20
# DIP band range limits                           :  20   1
# DIP e/h energy range                            :  -1.00000000     -1.00000000    [eV]
# RL vectors in the sum                           :  2637
# [r,Vnl] included                                : yes
# Bands ordered                                   : no
# Direct v evaluation                             : no
# Approach used                                   : G-space v
# Dipoles computed                                : R V P
# Wavefunctions                                   : Perdew, Burke & Ernzerhof(X)+Perdew, Burke & Ernzerhof(C)
#
#
#    E[1] [eV]          Im(alpha)          Re(alpha)
#
        0.000000           0.000000           57.39331
        0.010000           0.002143           57.39341
        0.020000           0.004286           57.39373
        0.030000           0.006429           57.39427
        0.040000           0.008572           57.39502
        0.050000           0.010716           57.39599
        0.060000           0.012860           57.39716
        0.070000           0.015004           57.39854
        0.080000           0.017149           57.40016
        0.090000           0.019294           57.40197
        0.100000           0.021440           57.40401
        0.110000           0.023586           57.40626
        0.120000           0.025734           57.40872
        0.130000           0.027882           57.41140
        0.140000           0.030030           57.41430
        0.150000           0.032180           57.41741
        0.160000           0.034331           57.42073
        0.170000           0.036483           57.42426
        0.180000           0.038636           57.42799
        0.190000           0.040790           57.43200
        0.200000           0.042945           57.43616
        0.210000           0.045102           57.44056
        0.220000           0.047260           57.44518
        0.230000           0.049420           57.45002
        0.240000           0.051581           57.45504
        0.250000           0.053743           57.46032
        0.260000           0.055907           57.46579
        0.270000           0.058073           57.47147
        0.280000           0.060241           57.47739
        0.290000           0.062411           57.48352
        0.300000           0.064582           57.48986
        0.310000           0.066756           57.49643
        0.320000           0.068931           57.50319
        0.330000           0.071109           57.51020
        0.340000           0.073289           57.51742
        0.350000           0.075471           57.52483
        0.360000           0.077656           57.53251
        0.370000           0.079843           57.54036
        0.380000           0.082032           57.54845
        0.390000           0.084224           57.55674
        0.400000           0.086418           57.56527
        0.410000           0.088616           57.57401
        0.420000           0.090815           57.58297
        0.430000           0.093018           57.59215
        0.440000           0.095224           57.60154
        0.450000           0.097432           57.61118
        0.460000           0.099644           57.62102
        0.470000           0.101859           57.63108
        0.480000           0.104077           57.64137
        0.490000           0.106298           57.65187
        0.500000           0.108522           57.66261
        0.510000           0.110750           57.67354
        0.520000           0.112982           57.68473
        0.530000           0.115216           57.69614
        0.540000           0.117455           57.70775
        0.550000           0.119697           57.71959
        0.560000           0.121943           57.73167
        0.570000           0.124193           57.74396
        0.580000           0.126447           57.75648
        0.590000           0.128704           57.76922
        0.600000           0.130966           57.78221
        0.610000           0.133232           57.79537
        0.620000           0.135502           57.80881
        0.630000           0.137776           57.82246
        0.640000           0.140055           57.83633
        0.650000           0.142338           57.85043
        0.660000           0.144626           57.86477
        0.670000           0.146918           57.87933
        0.680000           0.149215           57.89412
        0.690000           0.151517           57.90916
        0.700000           0.153823           57.92440
        0.710000           0.156135           57.93988
        0.720000           0.158451           57.95560
        0.730000           0.160773           57.97152
        0.740000           0.163100           57.98771
        0.750000           0.165431           58.00411
        0.760000           0.167769           58.02077
        0.770000           0.170111           58.03763
        0.780000           0.172460           58.05474
        0.790000           0.174813           58.07209
        0.800000           0.177173           58.08966
        0.810000           0.179538           58.10749
        0.820000           0.181909           58.12554
        0.830000           0.184286           58.14384
        0.840000           0.186669           58.16236
        0.850000           0.189058           58.18112
        0.860000           0.191453           58.20012
        0.870000           0.193855           58.21936
        0.880000           0.196263           58.23885
        0.890000           0.198677           58.25858
        0.900000           0.201098           58.27855
        0.910000           0.203525           58.29876
        0.920000           0.205959           58.31921
        0.930000           0.208400           58.33990
        0.940000           0.210848           58.36084
        0.950000           0.213303           58.38204
        0.960000           0.215765           58.40346
        0.970000           0.218234           58.42514
        0.980000           0.220710           58.44706
        0.990000           0.223194           58.46924
        1.000000           0.225686           58.49164
        1.010000           0.228184           58.51431
        1.020000           0.230691           58.53722
        1.030000           0.233205           58.56040
        1.040000           0.235728           58.58383
        1.050000           0.238258           58.60749
        1.060000           0.240796           58.63141
        1.070000           0.243342           58.65559
        1.080000           0.245897           58.68003
        1.090000           0.248460           58.70473
        1.100000           0.251032           58.72969
        1.110000           0.253612           58.75487
        1.120000           0.256201           58.78033
        1.130000           0.258799           58.80604
        1.140000           0.261405           58.83203
        1.150000           0.264021           58.85827
        1.160000           0.266646           58.88480
        1.170000           0.269280           58.91155
        1.180000           0.271923           58.93856
        1.190000           0.274576           58.96588
        1.200000           0.277239           58.99343
        1.210000           0.279911           59.02126
        1.220000           0.282593           59.04934
        1.230000           0.285285           59.07770
        1.240000           0.287987           59.10633
        1.250000           0.290699           59.13523
        1.260000           0.293422           59.16441
        1.270000           0.296155           59.19384
        1.280000           0.298898           59.22355
        1.290000           0.301652           59.25355
        1.300000           0.304417           59.28381
        1.310000           0.307193           59.31437
        1.320000           0.309980           59.34520
        1.330000           0.312778           59.37629
        1.340000           0.315587           59.40767
        1.350000           0.318408           59.43933
        1.360000           0.321241           59.47126
        1.370000           0.324085           59.50349
        1.380000           0.326941           59.53602
        1.390000           0.329809           59.56881
        1.400000           0.332689           59.60189
        1.410000           0.335581           59.63525
        1.420000           0.338486           59.66892
        1.430000           0.341403           59.70288
        1.440000           0.344333           59.73712
        1.450000           0.347276           59.77166
        1.460000           0.350232           59.80651
        1.470000           0.353201           59.84163
        1.480000           0.356183           59.87704
        1.490000           0.359178           59.91276
        1.500000           0.362188           59.94878
        1.510000           0.365210           59.98510
        1.520000           0.368247           60.02174
        1.530000           0.371298           60.05866
        1.540000           0.374363           60.09589
        1.550000           0.377442           60.13344
        1.560000           0.380536           60.17129
        1.570000           0.383645           60.20947
        1.580000           0.386768           60.24791
        1.590000           0.389907           60.28671
        1.600000           0.393060           60.32581
        1.610000           0.396229           60.36522
        1.620000           0.399414           60.40494
        1.630000           0.402614           60.44501
        1.640000           0.405830           60.48537
        1.650000           0.409062           60.52607
        1.660000           0.412311           60.56707
        1.670000           0.415576           60.60841
        1.680000           0.418857           60.65008
        1.690000           0.422156           60.69207
        1.700000           0.425471           60.73438
        1.710000           0.428804           60.77704
        1.720000           0.432153           60.82003
        1.730000           0.435521           60.86336
        1.740000           0.438906           60.90702
        1.750000           0.442309           60.95103
        1.760000           0.445731           60.99537
        1.770000           0.449170           61.04005
        1.780000           0.452629           61.08508
        1.790000           0.456106           61.13046
        1.800000           0.459602           61.17617
        1.810000           0.463118           61.22224
        1.820000           0.466652           61.26867
        1.830000           0.470207           61.31545
        1.840000           0.473782           61.36259
        1.850000           0.477376           61.41008
        1.860000           0.480991           61.45792
        1.870000           0.484626           61.50613
        1.880000           0.488283           61.55471
        1.890000           0.491960           61.60363
        1.900000           0.495659           61.65295
        1.910000           0.499379           61.70264
        1.920000           0.503121           61.75269
        1.930000           0.506885           61.80311
        1.940000           0.510671           61.85391
        1.950000           0.514480           61.90509
        1.960000           0.518311           61.95667
        1.970000           0.522166           62.00860
        1.980000           0.526044           62.06095
        1.990000           0.529945           62.11367
        2.000000           0.533871           62.16676
        2.010000           0.537820           62.22026
        2.020000           0.541794           62.27417
        2.030000           0.545793           62.32848
        2.040000           0.549816           62.38316
        2.050000           0.553865           62.43827
        2.060000           0.557940           62.49377
        2.070000           0.562040           62.54968
        2.080000           0.566167           62.60600
        2.090000           0.570320           62.66274
        2.100000           0.574500           62.71988
        2.110000           0.578706           62.77746
        2.120000           0.582941           62.83543
        2.130000           0.587203           62.89384
        2.140000           0.591493           62.95270
        2.150000           0.595812           63.01196
        2.160000           0.600159           63.07169
        2.170000           0.604535           63.13182
        2.180000           0.608941           63.19237
        2.190000           0.613376           63.25340
        2.200000           0.617842           63.31486
        2.210000           0.622338           63.37677
        2.220000           0.626865           63.43911
        2.230000           0.631423           63.50193
        2.240000           0.636013           63.56518
        2.250000           0.640635           63.62893
        2.260000           0.645289           63.69310
        2.270000           0.649976           63.75775
        2.280000           0.654696           63.82288
        2.290000           0.659450           63.88848
        2.300000           0.664237           63.95454
        2.310000           0.669059           64.02110
        2.320000           0.673916           64.08812
        2.330000           0.678808           64.15565
        2.340000           0.683736           64.22364
        2.350000           0.688699           64.29214
        2.360000           0.693699           64.36115
        2.370000           0.698737           64.43066
        2.380000           0.703811           64.50066
        2.390000           0.708924           64.57114
        2.400000           0.714075           64.64217
        2.410000           0.719265           64.71371
        2.420000           0.724494           64.78576
        2.430000           0.729763           64.85835
        2.440000           0.735073           64.93145
        2.450000           0.740423           65.00509
        2.460000           0.745815           65.07926
        2.470000           0.751248           65.15397
        2.480000           0.756724           65.22923
        2.490000           0.762243           65.30503
        2.500000           0.767806           65.38139
        2.510000           0.773412           65.45830
        2.520000           0.779064           65.53578
        2.530000           0.784760           65.61382
        2.540000           0.790502           65.69241
        2.550000           0.796291           65.77161
        2.560000           0.802127           65.85136
        2.570000           0.808010           65.93172
        2.580000           0.813941           66.01266
        2.590000           0.819921           66.09418
        2.600000           0.825951           66.17631
        2.610000           0.832031           66.25903
        2.620000           0.838162           66.34238
        2.630000           0.844345           66.42634
        2.640000           0.850579           66.51090
        2.650000           0.856866           66.59611
        2.660000           0.863208           66.68192
        2.670000           0.869603           66.76838
        2.680000           0.876053           66.85548
        2.690000           0.882559           66.94321
        2.700000           0.889122           67.03160
        2.710000           0.895742           67.12064
        2.720000           0.902420           67.21037
        2.730000           0.909157           67.30075
        2.740000           0.915954           67.39179
        2.750000           0.922811           67.48354
        2.760000           0.929730           67.57597
        2.770000           0.936710           67.66908
        2.780000           0.943754           67.76289
        2.790000           0.950862           67.85739
        2.800000           0.958034           67.95261
        2.810000           0.965273           68.04855
        2.820000           0.972578           68.14525
        2.830000           0.979950           68.24263
        2.840000           0.987391           68.34077
        2.850000           0.994902           68.43965
        2.860000           1.002483           68.53928
        2.870000           1.010136           68.63969
        2.880000           1.017862           68.74083
        2.890000           1.025661           68.84276
        2.900000           1.033535           68.94547
        2.910000           1.041484           69.04896
        2.920000           1.049511           69.15325
        2.930000           1.057615           69.25835
        2.940000           1.065799           69.36424
        2.950000           1.074063           69.47097
        2.960000           1.082408           69.57851
        2.970000           1.090836           69.68689
        2.980000           1.099348           69.79613
        2.990000           1.107946           69.90620
        3.000000           1.116630           70.01714
        3.010000           1.125401           70.12894
        3.020000           1.134262           70.24162
        3.030000           1.143214           70.35518
        3.040000           1.152257           70.46965
        3.050000           1.161393           70.58503
        3.060000           1.170625           70.70130
        3.070000           1.179953           70.81853
        3.080000           1.189378           70.93665
        3.090000           1.198902           71.05573
        3.100000           1.208527           71.17577
        3.110000           1.218254           71.29675
        3.120000           1.228085           71.41872
        3.130000           1.238022           71.54166
        3.140000           1.248066           71.66560
        3.150000           1.258219           71.79057
        3.160000           1.268483           71.91653
        3.170000           1.278859           72.04350
        3.180000           1.289350           72.17152
        3.190000           1.299957           72.30061
        3.200000           1.310681           72.43073
        3.210000           1.321526           72.56194
        3.220000           1.332492           72.69422
        3.230000           1.343583           72.82762
        3.240000           1.354799           72.96212
        3.250000           1.366145           73.09774
        3.260000           1.377619           73.23445
        3.270000           1.389227           73.37238
        3.280000           1.400968           73.51143
        3.290000           1.412847           73.65165
        3.300000           1.424865           73.79307
        3.310000           1.437025           73.93569
        3.320000           1.449329           74.07952
        3.330000           1.461780           74.22458
        3.340000           1.474379           74.37089
        3.350000           1.487130           74.51846
        3.360000           1.500036           74.66727
        3.370000           1.513098           74.81741
        3.380000           1.526320           74.96883
        3.390000           1.539706           75.12160
        3.400000           1.553256           75.27567
        3.410000           1.566975           75.43114
        3.420000           1.580865           75.58792
        3.430000           1.594930           75.74614
        3.440000           1.609172           75.90575
        3.450000           1.623597           76.06675
        3.460000           1.638205           76.22921
        3.470000           1.653000           76.39315
        3.480000           1.667987           76.55857
        3.490000           1.683168           76.72543
        3.500000           1.698548           76.89385
        3.510000           1.714131           77.06382
        3.520000           1.729918           77.23534
        3.530000           1.745916           77.40840
        3.540000           1.762127           77.58308
        3.550000           1.778556           77.75938
        3.560000           1.795208           77.93730
        3.570000           1.812086           78.11691
        3.580000           1.829195           78.29824
        3.590000           1.846538           78.48119
        3.600000           1.864122           78.66592
        3.610000           1.881950           78.85239
        3.620000           1.900027           79.04066
        3.630000           1.918360           79.23069
        3.640000           1.936951           79.42259
        3.650000           1.955808           79.61635
        3.660000           1.974934           79.81194
        3.670000           1.994337           80.00946
        3.680000           2.014020           80.20895
        3.690000           2.033991           80.41037
        3.700000           2.054255           80.61378
        3.710000           2.074818           80.81922
        3.720000           2.095686           81.02673
        3.730000           2.116867           81.23627
        3.740000           2.138365           81.44798
        3.750000           2.160190           81.66182
        3.760000           2.182347           81.87782
        3.770000           2.204843           82.09602
        3.780000           2.227685           82.31644
        3.790000           2.250882           82.53919
        3.800000           2.274441           82.76421
        3.810000           2.298370           82.99159
        3.820000           2.322678           83.22136
        3.830000           2.347373           83.45355
        3.840000           2.372462           83.68819
        3.850000           2.397956           83.92535
        3.860000           2.423865           84.16503
        3.870000           2.450195           84.40730
        3.880000           2.476958           84.65217
        3.890000           2.504165           84.89976
        3.900000           2.531825           85.15001
        3.910000           2.559949           85.40305
        3.920000           2.588548           85.65882
        3.930000           2.617631           85.91747
        3.940000           2.647216           86.17903
        3.950000           2.677307           86.44356
        3.960000           2.707921           86.71105
        3.970000           2.739069           86.98154
        3.980000           2.770766           87.25519
        3.990000           2.803023           87.53197
        4.000000           2.835856           87.81196
        4.010000           2.869279           88.09521
        4.020000           2.903306           88.38178
        4.030000           2.937954           88.67175
        4.040000           2.973237           88.96514
        4.050000           3.009173           89.26207
        4.060000           3.045777           89.56248
        4.070000           3.083067           89.86660
        4.080000           3.121062           90.17443
        4.090000           3.159780           90.48601
        4.100000           3.199241           90.80140
        4.110000           3.239463           91.12078
        4.120000           3.280471           91.44408
        4.130000           3.322282           91.77149
        4.140000           3.364918           92.10303
        4.150000           3.408404           92.43880
        4.160000           3.452761           92.77889
        4.170000           3.498017           93.12334
        4.180000           3.544195           93.47231
        4.190000           3.591322           93.82587
        4.200000           3.639424           94.18406
        4.210000           3.688532           94.54704
        4.220000           3.738672           94.91483
        4.230000           3.789876           95.28767
        4.240000           3.842177           95.66555
        4.250000           3.895605           96.04855
        4.260000           3.950194           96.43687
        4.270000           4.005980           96.83059
        4.280000           4.063001           97.22981
        4.290000           4.121293           97.63469
        4.300000           4.180900           98.04533
        4.310000           4.241855           98.46185
        4.320000           4.304206           98.88438
        4.330000           4.367997           99.31300
        4.340000           4.433271           99.74800
        4.350000           4.500082           100.1894
        4.360000           4.568475           100.6374
        4.370000           4.638504           101.0922
        4.380000           4.710225           101.5538
        4.390000           4.783692           102.0225
        4.400000           4.858966           102.4984
        4.410000           4.936110           102.9818
        4.420000           5.015182           103.4727
        4.430000           5.096258           103.9714
        4.440000           5.179401           104.4781
        4.450000           5.264688           104.9929
        4.460000           5.352197           105.5161
        4.470000           5.442007           106.0479
        4.480000           5.534200           106.5885
        4.490000           5.628866           107.1382
        4.500000           5.726095           107.6971
        4.510000           5.825984           108.2655
        4.520000           5.928634           108.8438
        4.530000           6.034149           109.4320
        4.540000           6.142645           110.0306
        4.550000           6.254235           110.6397
        4.560000           6.369040           111.2598
        4.570000           6.487191           111.8910
        4.580000           6.608822           112.5338
        4.590000           6.734077           113.1884
        4.600000           6.863100           113.8552
        4.610000           6.996054           114.5346
        4.620000           7.133102           115.2268
        4.630000           7.274417           115.9324
        4.640000           7.420186           116.6517
        4.650000           7.570600           117.3851
        4.660000           7.725867           118.1331
        4.670000           7.886206           118.8962
        4.680000           8.051837           119.6747
        4.690000           8.223002           120.4691
        4.700000           8.399965           121.2801
        4.710000           8.582993           122.1081
        4.720000           8.772370           122.9537
        4.730000           8.968402           123.8175
        4.740000           9.171416           124.7002
        4.750000           9.381753           125.6022
        4.760000           9.599773           126.5244
        4.770000           9.825868           127.4674
        4.780000           10.06045           128.4320
        4.790000           10.30396           129.4189
        4.800000           10.55686           130.4289
        4.810000           10.81965           131.4630
        4.820000           11.09288           132.5219
        4.830000           11.37709           133.6067
        4.840000           11.67291           134.7182
        4.850000           11.98100           135.8577
        4.860000           12.30204           137.0261
        4.870000           12.63678           138.2245
        4.880000           12.98604           139.4542
        4.890000           13.35068           140.7164
        4.900000           13.73162           142.0126
        4.910000           14.12987           143.3440
        4.920000           14.54652           144.7123
        4.930000           14.98272           146.1189
        4.940000           15.43974           147.5656
        4.950000           15.91893           149.0540
        4.960000           16.42179           150.5861
        4.970000           16.94990           152.1638
        4.980000           17.50501           153.7892
        4.990000           18.08901           155.4646
        5.000000           18.70395           157.1922
        5.010000           19.35208           158.9745
        5.020000           20.03585           160.8142
        5.030000           20.75797           162.7142
        5.040000           21.52131           164.6772
        5.050000           22.32911           166.7066
        5.060000           23.18492           168.8056
        5.070000           24.09261           170.9779
        5.080000           25.05648           173.2272
        5.090000           26.08125           175.5575
        5.100000           27.17214           177.9732
        5.110000           28.33499           180.4789
        5.120000           29.57619           183.0794
        5.130000           30.90293           185.7797
        5.140000           32.32317           188.5855
        5.150000           33.84584           191.5024
        5.160000           35.48090           194.5365
        5.170000           37.23954           197.6944
        5.180000           39.13432           200.9828
        5.190000           41.17940           204.4089
        5.200000           43.39077           207.9800
        5.210000           45.78653           211.7038
        5.220000           48.38728           215.5883
        5.230000           51.21610           219.6414
        5.240000           54.29967           223.8708
        5.250000           57.66830           228.2846
        5.260000           61.35663           232.8897
        5.270000           65.40446           237.6926
        5.280000           69.85740           242.6981
        5.290000           74.76787           247.9091
        5.300000           80.19640           253.3254
        5.310000           86.21251           258.9424
        5.320000           92.89639           264.7496
        5.330000           100.3403           270.7277
        5.340000           108.6501           276.8465
        5.350000           117.9469           283.0597
        5.360000           128.3683           289.2999
        5.370000           140.0688           295.4717
        5.380000           153.2196           301.4411
        5.390000           168.0056           307.0256
        5.400000           184.6202           311.9777
        5.410000           203.2498           315.9676
        5.420000           224.0583           318.5642
        5.430000           247.1513           319.2165
        5.440000           272.5276           317.2404
        5.450000           300.0111           311.8195
        5.460000           329.1652           302.0383
        5.470000           359.1987           286.9584
        5.480000           388.8903           265.7628
        5.490000           416.5736           237.9648
        5.500000           440.2401           203.6574
        5.510000           457.7955           163.7237
        5.520000           467.4511           119.9020
        5.530000           468.1442           74.61334
        5.540000           459.8206           30.55823
        5.550000           443.4498          -9.791475
        5.560000           420.7656          -44.61504
        5.570000           393.8517          -72.94039
        5.580000           364.7406          -94.60203
        5.590000           335.1444          -110.0363
        5.600000           306.3317          -120.0375
        5.610000           279.1361          -125.5384
        5.620000           254.0284          -127.4612
        5.630000           231.2085          -126.6331
        5.640000           210.6941          -123.7516
        5.650000           192.3899          -119.3798
        5.660000           176.1390          -113.9590
        5.670000           161.7570          -107.8270
        5.680000           149.0535          -101.2373
        5.690000           137.8451          -94.37711
        5.700000           127.9620          -87.38271
        5.710000           119.2507          -80.35114
        5.720000           111.5755          -73.35024
        5.730000           104.8173          -66.42578
        5.740000           98.87300          -59.60715
        5.750000           93.65350          -52.91182
        5.760000           89.08247          -46.34808
        5.770000           85.09538          -39.91853
        5.780000           81.63712          -33.62024
        5.790000           78.66159          -27.44735
        5.800000           76.13060          -21.39154
        5.810000           74.01294          -15.44290
        5.820000           72.28370          -9.590469
        5.830000           70.92387          -3.822766
        5.840000           69.91975           1.872209
        5.850000           69.26289           7.506178
        5.860000           68.94975           13.09074
        5.870000           68.98175           18.63684
        5.880000           69.36537           24.15455
        5.890000           70.11230           29.65282
        5.900000           71.23977           35.13880
        5.910000           72.77091           40.61729
        5.920000           74.73529           46.09008
        5.930000           77.16970           51.55462
        5.940000           80.11846           57.00280
        5.950000           83.63468           62.41906
        5.960000           87.77999           67.77706
        5.970000           92.62598           73.03749
        5.980000           98.25352           78.14284
        5.990000           104.7518           83.01210
        6.000000           112.2159           87.53319
        6.010000           120.7417           91.55471
        6.020000           130.4171           94.87624
        6.030000           141.3073           97.23753
        6.040000           153.4330           98.31078
        6.050000           166.7380           97.69788
        6.060000           181.0482           94.94003
        6.070000           196.0227           89.54819
        6.080000           211.1089           81.06429
        6.090000           225.5196           69.15862
        6.100000           238.2611           53.75495
        6.110000           248.2359           35.15397
        6.120000           254.4250           14.10190
        6.130000           256.1104          -8.251349
        6.140000           253.0590          -30.51879
        6.150000           245.5870          -51.33760
        6.160000           234.4722          -69.61308
        6.170000           220.7587          -84.67057
        6.180000           205.5357          -96.27637
        6.190000           189.7667          -104.5562
        6.200000           174.1999          -109.8690
        6.210000           159.3495          -112.6840
        6.220000           145.5244          -113.4899
        6.230000           132.8743          -112.7386
        6.240000           121.4377          -110.8188
        6.250000           111.1824          -108.0489
        6.260000           102.0350          -104.6806
        6.270000           93.90215          -100.9081
        6.280000           86.68407          -96.87822
        6.290000           80.28229          -92.69991
        6.300000           74.60439          -88.45284
        6.310000           69.56607          -84.19392
        6.320000           65.09248          -79.96381
        6.330000           61.11710          -75.78979
        6.340000           57.58205          -71.68994
        6.350000           54.43697          -67.67537
        6.360000           51.63840          -63.75202
        6.370000           49.14893          -59.92202
        6.380000           46.93637          -56.18493
        6.390000           44.97326          -52.53828
        6.400000           43.23611          -48.97823
        6.410000           41.70502          -45.50001
        6.420000           40.36321          -42.09815
        6.430000           39.19670          -38.76683
        6.440000           38.19394          -35.49995
        6.450000           37.34563          -32.29125
        6.460000           36.64457          -29.13443
        6.470000           36.08540          -26.02322
        6.480000           35.66468          -22.95146
        6.490000           35.38064          -19.91311
        6.500000           35.23333          -16.90215
        6.510000           35.22455          -13.91325
        6.520000           35.35794          -10.94102
        6.530000           35.63908          -7.980589
        6.540000           36.07566          -5.027657
        6.550000           36.67763          -2.078748
        6.560000           37.45745           0.868712
        6.570000           38.43045           3.815923
        6.580000           39.61497           6.762259
        6.590000           41.03296           9.704671
        6.600000           42.71018           12.63686
        6.610000           44.67667           15.54813
        6.620000           46.96696           18.42192
        6.630000           49.62030           21.23395
        6.640000           52.68034           23.94946
        6.650000           56.19436           26.52029
        6.660000           60.21152           28.88075
        6.670000           64.77943           30.94301
        6.680000           69.93866           32.59200
        6.690000           75.71297           33.68027
        6.700000           82.09707           34.02550
        6.710000           89.03732           33.41106
        6.720000           96.40901           31.59558
        6.730000           103.9919           28.33514
        6.740000           111.4514           23.42276
        6.750000           118.3374           16.74524
        6.760000           124.1155           8.348526
        6.770000           128.2388          -1.509776
        6.780000           130.2533          -12.34949
        6.790000           129.9064          -23.52037
        6.800000           127.2146          -34.31333
        6.810000           122.4583          -44.09412
        6.820000           116.1082          -52.40724
        6.830000           108.7137          -59.02289
        6.840000           100.8012          -63.91793
        6.850000           92.80661          -67.22064
        6.860000           85.04926          -69.14562
        6.870000           77.73565          -69.93871
        6.880000           70.97948          -69.83979
        6.890000           64.82623          -69.06233
        6.900000           59.27575          -67.78526
        6.910000           54.30006          -66.15269
        6.920000           49.85610          -64.27704
        6.930000           45.89435          -62.24431
        6.940000           42.36418          -60.11902
        6.950000           39.21702          -57.94886
        6.960000           36.40784          -55.76844
        6.970000           33.89600          -53.60252
        6.980000           31.64534          -51.46856
        6.990000           29.62407          -49.37832
        7.000000           27.80430          -47.33963
        7.010000           26.16180          -45.35720
        7.020000           24.67545          -43.43361
        7.030000           23.32695          -41.56981
        7.039999           22.10039          -39.76573
        7.050000           20.98195          -38.02037
        7.059999           19.95959          -36.33229
        7.070000           19.02284          -34.69968
        7.079999           18.16255          -33.12041
        7.090000           17.37072          -31.59238
        7.099999           16.64034          -30.11331
        7.110000           15.96524          -28.68093
        7.119999           15.34001          -27.29308
        7.130000           14.75984          -25.94755
        7.140000           14.22048          -24.64221
        7.150000           13.71823          -23.37525
        7.160000           13.24974          -22.14462
        7.170000           12.81202          -20.94856
        7.180000           12.40243          -19.78528
        7.190000           12.01858          -18.65320
        7.200000           11.65837          -17.55072
        7.210000           11.31987          -16.47641
        7.220000           11.00137          -15.42887
        7.230000           10.70132          -14.40682
        7.240000           10.41832          -13.40900
        7.250000           10.15110          -12.43426
        7.260000           9.898513          -11.48153
        7.270000           9.659512          -10.54974
        7.280000           9.433148          -9.637937
        7.290000           9.218553          -8.745174
        7.300000           9.014947          -7.870611
        7.310000           8.821591          -7.013414
        7.320000           8.637835          -6.172800
        7.330000           8.463065          -5.348028
        7.340000           8.296727          -4.538398
        7.350000           8.138303          -3.743270
        7.360000           7.987329          -2.962009
        7.370000           7.843365          -2.193999
        7.380000           7.706006          -1.438701
        7.390000           7.574881          -0.695556
        7.400000           7.449650           0.035927
        7.410000           7.329991           0.756253
        7.420000           7.215611           1.465876
        7.430000           7.106230           2.165231
        7.440000           7.001598           2.854748
        7.450000           6.901474           3.534834
        7.460000           6.805638           4.205857
        7.470000           6.713887           4.868197
        7.480000           6.626023           5.522210
        7.489999           6.541873           6.168221
        7.500000           6.461257           6.806606
        7.510000           6.384032           7.437573
        7.520000           6.310048           8.061477
        7.530000           6.239164           8.678592
        7.540000           6.171250           9.289203
        7.550000           6.106190           9.893569
        7.560000           6.043866           10.49194
        7.570000           5.984174           11.08457
        7.580000           5.927013           11.67170
        7.590000           5.872289           12.25354
        7.600000           5.819914           12.83033
        7.610000           5.769805           13.40226
        7.620000           5.721881           13.96956
        7.630000           5.676074           14.53240
        7.640000           5.632309           15.09101
        7.650000           5.590528           15.64555
        7.660000           5.550662           16.19621
        7.670000           5.512660           16.74318
        7.680000           5.476461           17.28662
        7.690000           5.442016           17.82668
        7.700000           5.409280           18.36355
        7.710000           5.378207           18.89738
        7.720000           5.348752           19.42833
        7.730000           5.320877           19.95654
        7.740000           5.294544           20.48217
        7.750000           5.269716           21.00535
        7.760000           5.246362           21.52623
        7.770000           5.224449           22.04497
        7.780000           5.203952           22.56166
        7.789999           5.184844           23.07647
        7.800000           5.167092           23.58952
        7.809999           5.150681           24.10094
        7.820000           5.135584           24.61085
        7.829999           5.121785           25.11938
        7.840000           5.109263           25.62665
        7.849999           5.098001           26.13280
        7.860000           5.087984           26.63793
        7.870000           5.079196           27.14221
        7.880000           5.071630           27.64567
        7.890000           5.065266           28.14846
        7.900000           5.060101           28.65072
        7.910000           5.056122           29.15256
        7.920000           5.053325           29.65406
        7.930000           5.051700           30.15539
        7.940000           5.051242           30.65660
        7.950000           5.051950           31.15784
        7.960000           5.053819           31.65923
        7.970000           5.056844           32.16087
        7.980000           5.061031           32.66286
        7.990000           5.066376           33.16533
        8.000000           5.072886           33.66838
        8.010000           5.080556           34.17212
        8.020000           5.089399           34.67668
        8.030000           5.099409           35.18216
        8.040000           5.110603           35.68868
        8.050000           5.122985           36.19636
        8.059999           5.136560           36.70528
        8.070000           5.151343           37.21560
        8.080000           5.167343           37.72742
        8.090000           5.184572           38.24087
        8.099999           5.203045           38.75603
        8.110000           5.222774           39.27306
        8.120000           5.243780           39.79206
        8.130000           5.266075           40.31318
        8.139999           5.289682           40.83652
        8.150000           5.314619           41.36221
        8.160000           5.340908           41.89039
        8.170000           5.368575           42.42120
        8.179999           5.397642           42.95475
        8.190000           5.428138           43.49118
        8.200000           5.460092           44.03062
        8.209999           5.493527           44.57324
        8.219999           5.528484           45.11917
        8.230000           5.564994           45.66860
        8.240001           5.603091           46.22160
        8.250000           5.642811           46.77834
        8.260000           5.684196           47.33900
        8.270000           5.727290           47.90373
        8.280000           5.772137           48.47271
        8.290000           5.818779           49.04610
        8.300000           5.867276           49.62407
        8.310000           5.917672           50.20680
        8.320000           5.970027           50.79447
        8.330000           6.024394           51.38729
        8.340000           6.080839           51.98541
        8.350000           6.139427           52.58907
        8.360000           6.200225           53.19845
        8.370000           6.263309           53.81378
        8.380000           6.328753           54.43526
        8.390000           6.396636           55.06312
        8.400000           6.467043           55.69759
        8.410000           6.540067           56.33894
        8.420000           6.615803           56.98738
        8.430000           6.694349           57.64318
        8.440000           6.775812           58.30660
        8.450000           6.860306           58.97794
        8.460000           6.947946           59.65746
        8.469999           7.038860           60.34547
        8.480000           7.133183           61.04226
        8.490000           7.231051           61.74817
        8.500000           7.332619           62.46351
        8.509999           7.438039           63.18865
        8.520000           7.547486           63.92394
        8.530000           7.661131           64.66973
        8.540000           7.779171           65.42645
        8.549999           7.901803           66.19450
        8.559999           8.029239           66.97427
        8.570000           8.161713           67.76621
        8.580000           8.299465           68.57082
        8.589999           8.442752           69.38855
        8.600000           8.591865           70.21997
        8.610001           8.747074           71.06550
        8.620000           8.908706           71.92570
        8.630000           9.077099           72.80122
        8.640000           9.252613           73.69263
        8.650001           9.435628           74.60056
        8.660000           9.626569           75.52570
        8.670000           9.825877           76.46876
        8.680000           10.03403           77.43044
        8.690001           10.25153           78.41156
        8.700000           10.47894           79.41287
        8.710000           10.71686           80.43531
        8.720000           10.96593           81.47975
        8.730000           11.22684           82.54711
        8.740000           11.50035           83.63842
        8.750000           11.78725           84.75479
        8.760000           12.08845           85.89729
        8.770000           12.40488           87.06712
        8.780000           12.73760           88.26554
        8.790000           13.08773           89.49392
        8.800000           13.45650           90.75359
        8.809999           13.84526           92.04610
        8.820000           14.25548           93.37301
        8.830000           14.68877           94.73598
        8.840000           15.14688           96.13686
        8.849999           15.63175           97.57745
        8.860000           16.14552           99.05984
        8.870000           16.69053           100.5861
        8.880000           17.26936           102.1585
        8.889999           17.88489           103.7795
        8.900000           18.54026           105.4516
        8.910000           19.23901           107.1775
        8.919999           19.98504           108.9601
        8.929999           20.78272           110.8025
        8.940000           21.63691           112.7078
        8.950000           22.55303           114.6795
        8.959999           23.53720           116.7212
        8.970000           24.59636           118.8368
        8.980000           25.73805           121.0299
        8.990000           26.97107           123.3049
        9.000000           28.30525           125.6660
        9.010000           29.75179           128.1176
        9.020000           31.32335           130.6641
        9.030000           33.03441           133.3100
        9.040000           34.90142           136.0595
        9.050000           36.94329           138.9167
        9.060000           39.18161           141.8852
        9.070000           41.64120           144.9677
        9.080000           44.35060           148.1661
        9.090000           47.34265           151.4802
        9.100000           50.65516           154.9078
        9.110000           54.33171           158.4433
        9.120000           58.42245           162.0766
        9.130000           62.98488           165.7914
        9.140000           68.08484           169.5629
        9.150000           73.79705           173.3546
        9.160000           80.20552           177.1151
        9.170000           87.40326           180.7723
        9.179999           95.49087           184.2272
        9.190000           104.5731           187.3460
        9.200000           114.7523           189.9503
        9.210000           126.1176           191.8067
        9.219999           138.7270           192.6169
        9.230000           152.5809           192.0096
        9.240000           167.5852           189.5427
        9.250000           183.5049           184.7186
        9.259999           199.9128           177.0274
        9.270000           216.1479           166.0235
        9.280000           231.3074           151.4395
        9.290000           244.3011           133.3215
        9.299999           253.9898           112.1437
        9.309999           259.3976           88.84601
        9.320000           259.9405           64.74148
        9.330000           255.5812           41.29687
        9.340000           246.8414           19.86354
        9.350000           234.6599           1.435471
        9.360001           220.1691          -13.45250
        9.370000           204.4762          -24.70446
        9.380000           188.5141          -32.55476
        9.390000           172.9765          -37.43264
        9.400001           158.3200          -39.84430
        9.410000           144.8031          -40.29111
        9.420000           132.5365          -39.22307
        9.430000           121.5312          -37.01969
        9.440000           111.7366          -33.98753
        9.450000           103.0681          -30.36662
        9.460000           95.42619          -26.34051
        9.470000           88.70796          -22.04678
        9.480000           82.81424          -17.58696
        9.490000           77.65329          -13.03450
        9.500000           73.14244          -8.441609
        9.510000           69.20858          -3.844270
        9.520000           65.78790           0.733392
        9.530000           62.82518           5.276387
        9.540000           60.27311           9.776267
        9.550000           58.09144           14.22957
        9.559999           56.24621           18.63640
        9.570000           54.70903           22.99947
        9.580000           53.45652           27.32341
        9.590000           52.46971           31.61429
        9.599999           51.73367           35.87910
        9.610000           51.23722           40.12548
        9.620000           50.97250           44.36153
        9.629999           50.93495           48.59565
        9.639999           51.12320           52.83634
        9.650000           51.53887           57.09199
        9.660000           52.18681           61.37085
        9.669999           53.07508           65.68076
        9.679999           54.21518           70.02911
        9.690000           55.62228           74.42227
        9.700000           57.31570           78.86593
        9.710000           59.31877           83.36309
        9.720000           61.66007           87.91537
        9.730000           64.37347           92.52103
        9.740000           67.49889           97.17397
        9.750000           71.08270           101.8623
        9.760000           75.17843           106.5666
        9.770000           79.84682           111.2567
        9.780000           85.15578           115.8888
        9.790000           91.17934           120.4012
        9.800000           97.99533           124.7086
        9.810000           105.6813           128.6966
        9.820000           114.3067           132.2150
        9.830000           123.9219           135.0717
        9.840000           134.5410           137.0300
        9.850000           146.1195           137.8111
        9.860000           158.5280           137.1079
        9.870000           171.5267           134.6146
        9.880000           184.7511           130.0746
        9.889999           197.7232           123.3434
        9.900000           209.9018           114.4496
        9.910000           220.7712           103.6266
        9.920000           229.9485           91.28606
        9.929999           237.2633           77.92465
        9.940000           242.7673           63.99189
        9.950000           246.6565           49.77546
        9.960000           249.1366           35.35876
        9.969999           250.2908           20.67249
        9.980000           250.0070           5.618769
        9.990000           247.9976          -9.782865
        10.00000           243.9101          -25.29009
        10.01000           237.4824          -40.42075
        10.02000           228.6805          -54.53702
        10.03000           217.7574          -66.99516
        10.04000           205.2113          -77.29555
        10.05000           191.6744          -85.17353
        10.06000           177.7842          -90.61076
        10.07000           164.0905          -93.78364
        10.08000           151.0013          -94.98986
        10.09000           138.7811          -94.57475
        10.10000           127.5703          -92.87944
        10.11000           117.4164          -90.21026
        10.12000           108.3033          -86.82548
        10.13000           100.1766          -82.93359
        10.14000           92.96115          -78.69723
        10.15000           86.57410          -74.24027
        10.16000           80.93201          -69.65483
        10.17000           75.95582          -65.00793
        10.18000           71.57296          -60.34742
        10.19000           67.71846          -55.70635
        10.20000           64.33496          -51.10666
        10.21000           61.37255          -46.56213
        10.22000           58.78814          -42.08022
        10.23000           56.54490          -37.66405
        10.24000           54.61156          -33.31338
        10.25000           52.96186          -29.02550
        10.26000           51.57404          -24.79612
        10.27000           50.43036          -20.61961
        10.28000           49.51671          -16.48961
        10.29000           48.82241          -12.39913
        10.30000           48.33980          -8.340890
        10.31000           48.06425          -4.307445
        10.32000           47.99399          -0.291387
        10.33000           48.13012           3.714516
        10.34000           48.47659           7.717231
        10.35000           49.04044           11.72320
        10.36000           49.83174           15.73806
        10.37000           50.86407           19.76651
        10.38000           52.15467           23.81180
        10.39000           53.72483           27.87521
        10.40000           55.60038           31.95544
        10.41000           57.81202           36.04766
        10.42000           60.39592           40.14215
        10.43000           63.39425           44.22333
        10.44000           66.85451           48.26593
        10.45000           70.83077           52.23445
        10.46000           75.38226           56.07837
        10.47000           80.57156           59.72815
        10.48000           86.46181           63.09033
        10.49000           93.11092           66.04204
        10.50000           100.5632           68.42574
        10.51000           108.8368           70.04582
        10.52000           117.9072           70.66830
        10.53000           127.6867           70.02748
        10.54000           138.0033           67.84144
        10.55000           148.5818           63.83965
        10.56000           159.0350           57.80156
        10.57000           168.8691           49.60426
        10.58000           177.5115           39.27214
        10.59000           184.3623           27.01975
        10.60000           188.8716           13.27356
        10.61000           190.6308          -1.343641
        10.62000           189.4566          -16.07712
        10.63000           185.4366          -30.14558
        10.64000           178.9138          -42.85765
        10.65000           170.4187          -53.70353
        10.66000           160.5715          -62.39747
        10.67000           149.9873          -68.87086
        10.68000           139.2058          -73.23000
        10.69000           128.6523          -75.69847
        10.70000           118.6274          -76.55985
        10.71000           109.3177          -76.11169
        10.72000           100.8174          -74.63396
        10.73000           93.15285          -72.37202
        10.74000           86.30505          -69.53006
        10.75000           80.22792          -66.27174
        10.76000           74.86128          -62.72427
        10.77000           70.13979          -58.98431
        10.78000           65.99865          -55.12363
        10.79000           62.37648          -51.19413
        10.80000           59.21817          -47.23357
        10.81000           56.47374          -43.26717
        10.82000           54.09967          -39.31181
        10.83000           52.05829          -35.37786
        10.84000           50.31734          -31.47075
        10.85000           48.84945          -27.59238
        10.86000           47.63171          -23.74195
        10.87000           46.64524          -19.91674
        10.88000           45.87461          -16.11251
        10.89000           45.30775          -12.32403
        10.90000           44.93550          -8.545252
        10.91000           44.75144          -4.769612
        10.92000           44.75179          -0.990099
        10.93000           44.93518           2.800495
        10.94000           45.30275           6.609639
        10.95000           45.85808           10.44476
        10.96000           46.60725           14.31335
        10.97000           47.55903           18.22271
        10.98000           48.72499           22.17990
        10.99000           50.11981           26.19156
        11.00000           51.76159           30.26357
        11.01000           53.67215           34.40097
        11.02000           55.87769           38.60732
        11.03000           58.40922           42.88430
        11.04000           61.30317           47.23095
        11.05000           64.60231           51.64248
        11.06000           68.35635           56.10921
        11.07000           72.62288           60.61455
        11.08000           77.46808           65.13263
        11.09000           82.96725           69.62511
        11.10000           89.20515           74.03719
        11.11000           96.27529           78.29199
        11.12000           104.2779           82.28396
        11.13000           113.3158           85.87048
        11.14000           123.4871           88.86241
        11.15000           134.8723           91.01402
        11.16000           147.5159           92.01350
        11.17000           161.3938           91.47852
        11.18000           176.3815           88.96172
        11.19000           192.2044           83.97340
        11.20000           208.3933           76.03074
        11.21000           224.2552           64.73953
        11.22000           238.8805           49.90541
        11.23000           251.2151           31.65162
        11.24000           260.2004           10.50533
        11.25000           264.9659          -12.59559
        11.26000           265.0159          -36.40367
        11.27000           260.3459          -59.55600
        11.28000           251.4409          -80.80426
        11.29000           239.1594          -99.20628
        11.30000           224.5493          -114.2250
        11.31000           208.6591          -125.7230
        11.32000           192.3991          -133.8803
        11.33000           176.4690          -139.0796
        11.34000           161.3469          -141.7966
        11.35000           147.3164          -142.5189
        11.36000           134.5108          -141.6944
        11.37000           122.9578          -139.7078
        11.38000           112.6177          -136.8743
        11.39000           103.4122          -133.4429
        11.40000           95.24429          -129.6060
        11.41000           88.01136          -125.5086
        11.42000           81.61293          -121.2585
        11.43000           75.95505          -116.9345
        11.44000           70.95223          -112.5927
        11.45000           66.52834          -108.2727
        11.46000           62.61642          -104.0014
        11.47000           59.15804          -99.79596
        11.48000           56.10264          -95.66692
        11.49000           53.40667          -91.61959
        11.50000           51.03279          -87.65554
        11.51000           48.94913          -83.77361
        11.52000           47.12851          -79.97044
        11.53000           45.54842          -76.24204
        11.54000           44.18958          -72.58271
        11.55000           43.03626          -68.98628
        11.56000           42.07573          -65.44622
        11.57000           41.29790          -61.95562
        11.58000           40.69529          -58.50761
        11.59000           40.26273          -55.09506
        11.60000           39.99725          -51.71104
        11.61000           39.89823          -48.34871
        11.62000           39.96717          -45.00134
        11.63000           40.20782          -41.66261
        11.64000           40.62634          -38.32654
        11.65000           41.23142          -34.98773
        11.66000           42.03454          -31.64147
        11.67000           43.05011          -28.28409
        11.68000           44.29593          -24.91335
        11.69000           45.79355          -21.52875
        11.70000           47.56863          -18.13241
        11.71000           49.65162          -14.72978
        11.72000           52.07803          -11.33094
        11.73000           54.88911          -7.952018
        11.74000           58.13208          -4.617457
        11.75000           61.86022          -1.362629
        11.76000           66.13248           1.762633
        11.77000           71.01217           4.689584
        11.78000           76.56411           7.325135
        11.79000           82.84948           9.545519
        11.80000           89.91786           11.18950
        11.81000           97.79360           12.05238
        11.82000           106.4567           11.88291
        11.83000           115.8176           10.38680
        11.84000           125.6851           7.242366
        11.85000           135.7354           2.135046
        11.86000           145.4914          -5.185100
        11.87000           154.3295          -14.82432
        11.88000           161.5334          -26.66022
        11.89000           166.4007          -40.28360
        11.90000           168.3863          -54.99800
        11.91000           167.2397          -69.91622
        11.92000           163.0708          -84.11503
        11.93000           156.3206          -96.80789
        11.94000           147.6457          -107.4671
        11.95000           137.7719          -115.8606
        11.96000           127.3680          -122.0143
        11.97000           116.9711          -126.1316
        11.98000           106.9635          -128.5104
        11.99000           97.58434          -129.4754
        12.00000           88.95852          -129.3353
        12.01000           81.12911          -128.3602
        12.02000           74.08532          -126.7743
        12.03000           67.78452          -124.7562
        12.04000           62.16761          -122.4452
        12.05000           57.16882          -119.9471
        12.06000           52.72229          -117.3413
        12.07000           48.76534          -114.6864
        12.08000           45.24029          -112.0250
        12.09000           42.09517          -109.3881
        12.10000           39.28361          -106.7973
        12.11000           36.76458          -104.2678
        12.12000           34.50167          -101.8095
        12.13000           32.46274          -99.42865
        12.14000           30.61920          -97.12814
        12.15000           28.94586          -94.90846
        12.16000           27.42070          -92.76772
        12.17000           26.02491          -90.70253
        12.18000           24.74284          -88.70823
        12.19000           23.56179          -86.77991
        12.20000           22.47164          -84.91274
        12.21000           21.46420          -83.10268
        12.22000           20.53259          -81.34641
        12.23000           19.67080          -79.64111
        12.24000           18.87337          -77.98472
        12.25000           18.13522          -76.37509
        12.26000           17.45153          -74.81042
        12.27000           16.81797          -73.28913
        12.28000           16.23039          -71.80936
        12.29000           15.68502          -70.36922
        12.30000           15.17843          -68.96694
        12.31000           14.70752          -67.60080
        12.32000           14.26950          -66.26889
        12.33000           13.86186          -64.96960
        12.34000           13.48237          -63.70111
        12.35000           13.12902          -62.46183
        12.36000           12.80004          -61.25016
        12.37000           12.49385          -60.06454
        12.38000           12.20905          -58.90355
        12.39000           11.94442          -57.76573
        12.40000           11.69888          -56.64973
        12.41000           11.47151          -55.55423
        12.42000           11.26152          -54.47800
        12.43000           11.06823          -53.41982
        12.44000           10.89110          -52.37852
        12.45000           10.72972          -51.35296
        12.46000           10.58376          -50.34212
        12.47000           10.45307          -49.34494
        12.48000           10.33757          -48.36042
        12.49000           10.23733          -47.38760
        12.50000           10.15256          -46.42560
        12.51000           10.08360          -45.47355
        12.52000           10.03097          -44.53061
        12.53000           9.995363          -43.59608
        12.54000           9.977653          -42.66929
        12.55000           9.978945          -41.74966
        12.56000           10.00059          -40.83682
        12.57000           10.04421          -39.93050
        12.58000           10.11175          -39.03068
        12.59000           10.20549          -38.13768
        12.60000           10.32809          -37.25216
        12.61000           10.48261          -36.37544
        12.62000           10.67256          -35.50934
        12.63000           10.90176          -34.65699
        12.64000           11.17439          -33.82246
        12.65000           11.49476          -33.01149
        12.66000           11.86697          -32.23190
        12.67000           12.29441          -31.49389
        12.68000           12.77887          -30.81065
        12.69000           13.31936          -30.19841
        12.70000           13.91036          -29.67635
        12.71000           14.53979          -29.26563
        12.72000           15.18686          -28.98722
        12.73000           15.82061          -28.85821
        12.74000           16.40011          -28.88655
        12.75000           16.87772          -29.06542
        12.76000           17.20595          -29.36893
        12.77000           17.34699          -29.75192
        12.78000           17.28192          -30.15548
        12.79000           17.01590          -30.51719
        12.80000           16.57668          -30.78283
        12.81000           16.00735          -30.91497
        12.82000           15.35654          -30.89599
        12.83000           14.66973          -30.72592
        12.84000           13.98392          -30.41720
        12.85000           13.32575          -29.98910
        12.86000           12.71215          -29.46302
        12.87000           12.15225          -28.85948
        12.88000           11.64948          -28.19652
        12.89000           11.20353          -27.48905
        12.90000           10.81188          -26.74896
        12.91000           10.47080          -25.98543
        12.92000           10.17613          -25.20534
        12.93000           9.923695          -24.41371
        12.94000           9.709509          -23.61415
        12.95000           9.529980          -22.80915
        12.96000           9.381922          -22.00033
        12.97000           9.262589          -21.18870
        12.98000           9.169638          -20.37472
        12.99000           9.101113          -19.55849
        13.00000           9.055448          -18.73999
        13.01000           9.031369          -17.91880
        13.02000           9.027917          -17.09443
        13.03000           9.044421          -16.26621
        13.04000           9.080453          -15.43344
        13.05000           9.135839          -14.59528
        13.06000           9.210646          -13.75089
        13.07000           9.305160          -12.89933
        13.08000           9.419909          -12.03961
        13.09000           9.555656          -11.17075
        13.10000           9.713416          -10.29172
        13.11000           9.894471          -9.401438
        13.12000           10.10038          -8.498843
        13.13000           10.33303          -7.582830
        13.14000           10.59465          -6.652334
        13.15000           10.88788          -5.706275
        13.16000           11.21580          -4.743663
        13.17000           11.58199          -3.763566
        13.18000           11.99064          -2.765174
        13.19000           12.44660          -1.747891
        13.20000           12.95550          -0.711381
        13.21000           13.52387           0.344280
        13.22000           14.15925           1.418478
        13.23000           14.87038           2.509817
        13.24000           15.66730           3.615866
        13.25000           16.56153           4.732746
        13.26000           17.56623           5.854649
        13.27000           18.69622           6.973164
        13.28000           19.96801           8.076416
        13.29000           21.39959           9.147943
        13.30000           23.00990           10.16533
        13.31000           24.81786           11.09852
        13.32000           26.84052           11.90794
        13.33000           29.09025           12.54258
        13.34000           31.57030           12.93851
        13.35000           34.26884           13.01853
        13.36000           37.14991           12.69435
        13.37000           40.14555           11.87302
        13.38000           43.14663           10.46916
        13.39000           45.99953           8.424197
        13.40000           48.51282           5.730457
        13.41000           50.47854           2.453936
        13.42000           51.70813          -1.254470
        13.43000           52.07472          -5.169526
        13.44000           51.54607          -9.026339
        13.45000           50.19375          -12.56966
        13.46000           48.17366          -15.59959
        13.47000           45.68741          -17.99752
        13.48000           42.94115          -19.72761
        13.49000           40.11453          -20.81973
        13.50000           37.34537          -21.34529
        13.51000           34.72761          -21.39438
        13.52000           32.31705          -21.05935
        13.53000           30.14061          -20.42483
        13.54000           28.20509          -19.56331
        13.55000           26.50476          -18.53400
        13.56000           25.02681          -17.38393
        13.57000           23.75511          -16.14964
        13.58000           22.67266          -14.85929
        13.59000           21.76298          -13.53453
        13.60000           21.01084          -12.19233
        13.61000           20.40247          -10.84627
        13.62000           19.92541          -9.507808
        13.63000           19.56827          -8.187561
        13.64000           19.31973          -6.894942
        13.65000           19.16809          -5.639965
        13.66000           19.09992          -4.431467
        13.67000           19.09932          -3.277899
        13.68000           19.14723          -2.184298
        13.69000           19.22168          -1.151679
        13.70000           19.29953          -0.173582
        13.71000           19.35938           0.763983
        13.72000           19.38551           1.683074
        13.73000           19.37121           2.609834
        13.74000           19.32004           3.571092
        13.75000           19.24451           4.588718
        13.76000           19.16260           5.677931
        13.77000           19.09391           6.845511
        13.78000           19.05636           8.092435
        13.79000           19.06460           9.414630
        13.80000           19.12954           10.80689
        13.81000           19.25878           12.26266
        13.82000           19.45762           13.77702
        13.83000           19.72969           15.34534
        13.84000           20.07803           16.96521
        13.85000           20.50532           18.63455
        13.86000           21.01481           20.35342
        13.87000           21.61009           22.12172
        13.88000           22.29598           23.94124
        13.89000           23.07801           25.81312
        13.90000           23.96342           27.74008
        13.91000           24.96057           29.72421
        13.92000           26.07939           31.76758
        13.93000           27.33227           33.87312
        13.94000           28.73292           36.04217
        13.95000           30.29841           38.27676
        13.96000           32.04759           40.57663
        13.97000           34.00361           42.94165
        13.98000           36.19207           45.36822
        13.99000           38.64405           47.85156
        14.00000           41.39383           50.38163
        14.01000           44.48255           52.94493
        14.02000           47.95513           55.51941
        14.03000           51.86456           58.07550
        14.04000           56.26727           60.56966
        14.05000           61.22740           62.94374
        14.06000           66.80930           65.11696
        14.07000           73.08025           66.98303
        14.08000           80.09680           68.40089
        14.09000           87.90269           69.19036
        14.10000           96.50409           69.12553
        14.11000           105.8577           67.93494
        14.12000           115.8316           65.31013
        14.13000           126.1851           60.92687
        14.14000           136.5287           54.49275
        14.15000           146.3262           45.80813
        14.16000           154.9073           34.85727
        14.17000           161.5549           21.87379
        14.18000           165.6182           7.390224
        14.19000           166.6645          -7.816602
        14.20000           164.5851          -22.82685
        14.21000           159.6264          -36.76441
        14.22000           152.3267          -48.93321
        14.23000           143.3788          -58.92425
        14.24000           133.4987          -66.60629
        14.25000           123.3066          -72.08222
        14.26000           113.2858          -75.59589
        14.27000           103.7606          -77.46107
        14.28000           94.92738          -77.99866
        14.29000           86.88007          -77.50439
        14.30000           79.63779          -76.23120
        14.31000           73.17955          -74.38617
        14.32000           67.45429          -72.13193
        14.33000           62.40248          -69.59464
        14.34000           57.95735          -66.86817
        14.35000           54.05657          -64.02345
        14.36000           50.63936          -61.11053
        14.37000           47.65290          -58.16671
        14.38000           45.04841          -55.21634
        14.39000           42.78488          -52.27739
        14.40000           40.82546          -49.35976
        14.41000           39.13982          -46.47061
        14.42000           37.70121          -43.61186
        14.43000           36.48805          -40.78482
        14.44000           35.48174          -37.98709
        14.45000           34.66770          -35.21687
        14.46000           34.03390          -32.46951
        14.47000           33.57152          -29.74156
        14.48000           33.27399          -27.02738
        14.49000           33.13742          -24.32278
        14.50000           33.16015          -21.62174
        14.51000           33.34285          -18.92002
        14.52000           33.68861          -16.21177
        14.53000           34.20278          -13.49321
        14.54000           34.89349          -10.75929
        14.55000           35.77125          -8.007437
        14.56000           36.84999          -5.234319
        14.57000           38.14635          -2.439718
        14.58000           39.68132           0.376381
        14.59000           41.47902           3.209671
        14.60000           43.56908           6.054132
        14.61000           45.98482           8.897131
        14.62000           48.76625           11.72163
        14.63000           51.95768           14.50052
        14.64000           55.60850           17.19565
        14.65000           59.77441           19.75519
        14.66000           64.51131           22.10645
        14.67000           69.87735           24.15379
        14.68000           75.92066           25.76979
        14.69000           82.67698           26.79197
        14.70000           90.14720           27.01662
        14.71000           98.28645           26.19985
        14.72000           106.9681           24.06586
        14.73000           115.9663           20.32757
        14.74000           124.9207           14.73085
        14.75000           133.3402           7.111183
        14.76000           140.6191          -2.524249
        14.77000           146.1189          -13.93973
        14.78000           149.2750          -26.63259
        14.79000           149.7307          -39.89047
        14.80000           147.4271          -52.88992
        14.81000           142.6190          -64.86520
        14.82000           135.8093          -75.22544
        14.83000           127.6220          -83.64026
        14.84000           118.6864          -90.02268
        14.85000           109.5382          -94.48473
        14.86000           100.5877          -97.25396
        14.87000           92.10570          -98.61205
        14.88000           84.25372          -98.84187
        14.89000           77.10138          -98.20101
        14.90000           70.66364          -96.90880
        14.91000           64.91360          -95.14295
        14.92000           59.80740          -93.04417
        14.93000           55.28785          -90.71959
        14.94000           51.29806          -88.25128
        14.95000           47.77994          -85.69868
        14.96000           44.68153          -83.10678
        14.97000           41.95346          -80.50616
        14.98000           39.55351          -77.91968
        14.99000           37.44278          -75.36127
        15.00000           35.58852          -72.84060
        15.01000           33.96234          -70.36333
        15.02000           32.53924          -67.93105
        15.03000           31.29883          -65.54500
        15.04000           30.22280          -63.20345
        15.05000           29.29602          -60.90537
        15.06000           28.50465          -58.64706
        15.07000           27.83725          -56.42533
        15.08000           27.28373          -54.23437
        15.09000           26.83660          -52.06867
        15.10000           26.49049          -49.92081
        15.11000           26.24273          -47.78450
        15.12000           26.09277          -45.65265
        15.13000           26.04199          -43.52023
        15.14000           26.09310          -41.38182
        15.15000           26.24992          -39.23402
        15.16000           26.51726          -37.07272
        15.17000           26.90081          -34.89545
        15.18000           27.40760          -32.69866
        15.19000           28.04584          -30.48045
        15.20000           28.82576          -28.23778
        15.21000           29.75915          -25.96964
        15.22000           30.86073          -23.67427
        15.23000           32.14719          -21.35260
        15.24000           33.63914          -19.00562
        15.25000           35.35973          -16.63816
        15.26000           37.33712          -14.25667
        15.27000           39.60257          -11.87339
        15.28000           42.19344          -9.504799
        15.29000           45.15033          -7.176701
        15.30000           48.52044          -4.923633
        15.31000           52.35282          -2.795251
        15.32000           56.70134          -0.857324
        15.33000           61.61618           0.800649
        15.34000           67.14436           2.062562
        15.35000           73.31426           2.778511
        15.36000           80.12972           2.762441
        15.37000           87.54504           1.791455
        15.38000           95.44408          -0.385272
        15.39000           103.6188          -4.027767
        15.40000           111.7395          -9.364438
        15.41000           119.3589          -16.54095
        15.42000           125.9280          -25.54604
        15.43000           130.8706          -36.16182
        15.44000           133.6795          -47.93014
        15.45000           134.0368          -60.20582
        15.46000           131.8927          -72.24503
        15.47000           127.4803          -83.35734
        15.48000           121.2559          -93.01021
        15.49000           113.7849          -100.9067
        15.50000           105.6378          -106.9698
        15.51000           97.30016          -111.3032
        15.52000           89.14431          -114.1160
        15.53000           81.41529          -115.6667
        15.54000           74.25841          -116.2157
        15.55000           67.73437          -116.0008
        15.56000           61.85253          -115.2247
        15.57000           56.58287          -114.0518
        15.58000           51.87825          -112.6110
        15.59000           47.67857          -110.9983
        15.60000           43.92472          -109.2838
        15.61000           40.55820          -107.5142
        15.62000           37.52962          -105.7215
        15.63000           34.79552          -103.9250
        15.64000           32.32211          -102.1385
        15.65000           30.08035          -100.3713
        15.66000           28.04716          -98.63153
        15.67000           26.20112          -96.92544
        15.68000           24.52411          -95.25890
        15.69000           22.99843          -93.63553
        15.70000           21.60898          -92.05837
        15.71000           20.34131          -90.52845
        15.72000           19.18335          -89.04686
        15.73000           18.12372          -87.61289
        15.74000           17.15288          -86.22624
        15.75000           16.26230          -84.88631
        15.76000           15.44393          -83.59164
        15.77000           14.69107          -82.34138
        15.78000           13.99721          -81.13378
        15.79000           13.35694          -79.96771
        15.80000           12.76502          -78.84121
        15.81000           12.21712          -77.75302
        15.82000           11.70905          -76.70119
        15.83000           11.23740          -75.68430
        15.84000           10.79880          -74.70042
        15.85000           10.39059          -73.74830
        15.86000           10.01010          -72.82609
        15.87000           9.655233          -71.93259
        15.88000           9.323888          -71.06615
        15.89000           9.014421          -70.22568
        15.90000           8.725190          -69.40961
        15.91000           8.454929          -68.61705
        15.92000           8.202358          -67.84657
        15.93000           7.966536          -67.09741
        15.94000           7.746503          -66.36829
        15.95000           7.541585          -65.65864
        15.96000           7.351106          -64.96738
        15.97000           7.174646          -64.29404
        15.98000           7.011777          -63.63784
        15.99000           6.862310          -62.99849
        16.00000           6.726043          -62.37552
        16.01000           6.602954          -61.76904
        16.02000           6.492994          -61.17896
        16.03000           6.396201          -60.60591
        16.04000           6.312463          -60.05042
        16.05000           6.241568          -59.51381
        16.06000           6.182909          -58.99738
        16.07000           6.135372          -58.50312
        16.08000           6.097050          -58.03293
        16.09000           6.065046          -57.58892
        16.10000           6.035329          -57.17231
        16.11000           6.002870          -56.78345
        16.12000           5.962058          -56.42099
        16.13000           5.907469          -56.08134
        16.14000           5.834916          -55.75909
        16.15000           5.742259          -55.44735
        16.16000           5.629970          -55.13910
        16.17000           5.500859          -54.82797
        16.18000           5.359495          -54.50963
        16.19000           5.211051          -54.18163
        16.20000           5.060572          -53.84373
        16.21000           4.912129          -53.49689
        16.22000           4.768737          -53.14328
        16.23000           4.632160          -52.78502
        16.24000           4.503292          -52.42448
        16.25000           4.382238          -52.06340
        16.26000           4.268754          -51.70331
        16.27000           4.162321          -51.34515
        16.28000           4.062454          -50.98973
        16.29000           3.968652          -50.63733
        16.30000           3.880545          -50.28843
        16.31000           3.797748          -49.94314
        16.32000           3.719944          -49.60170
        16.33000           3.646764          -49.26419
        16.34000           3.577889          -48.93078
        16.35000           3.512986          -48.60133
        16.36000           3.451801          -48.27588
        16.37000           3.394110          -47.95417
        16.38000           3.339777          -47.63628
        16.39000           3.288674          -47.32190
        16.40000           3.240741          -47.01109
        16.41000           3.195891          -46.70362
        16.42000           3.154087          -46.39954
        16.43000           3.115260          -46.09864
        16.44000           3.079384          -45.80095
        16.45000           3.046417          -45.50626
        16.46000           3.016361          -45.21454
        16.47000           2.989232          -44.92571
        16.48000           2.965061          -44.63957
        16.49000           2.943930          -44.35614
        16.50000           2.925934          -44.07516
        16.51000           2.911220          -43.79664
        16.52000           2.899967          -43.52047
        16.53000           2.892405          -43.24659
        16.54000           2.888812          -42.97492
        16.55000           2.889522          -42.70559
        16.56000           2.894933          -42.43856
        16.57000           2.905505          -42.17401
        16.58000           2.921774          -41.91215
        16.59000           2.944333          -41.65341
        16.60000           2.973851          -41.39826
        16.61000           3.011021          -41.14755
        16.62000           3.056563          -40.90226
        16.63000           3.111105          -40.66388
        16.64000           3.175143          -40.43419
        16.65000           3.248793          -40.21561
        16.66000           3.331658          -40.01088
        16.67000           3.422417          -39.82335
        16.68000           3.518599          -39.65638
        16.69000           3.616162          -39.51318
        16.70000           3.709477          -39.39588
        16.71000           3.791479          -39.30478
        16.72000           3.854570          -39.23743
        16.73000           3.891868          -39.18836
        16.74000           3.898827          -39.14926
        16.75000           3.874408          -39.11062
        16.76000           3.821354          -39.06331
        16.77000           3.745457          -39.00040
        16.78000           3.653994          -38.91805
        16.79000           3.554235          -38.81555
        16.80000           3.452132          -38.69460
        16.81000           3.351857          -38.55826
        16.82000           3.255619          -38.40993
        16.83000           3.164121          -38.25278
        16.84000           3.077048          -38.08905
        16.85000           2.993636          -37.91992
        16.86000           2.913274          -37.74596
        16.87000           2.835712          -37.56705
        16.88000           2.761215          -37.38313
        16.89000           2.690325          -37.19417
        16.90000           2.623738          -37.00058
        16.91000           2.562027          -36.80286
        16.92000           2.505609          -36.60183
        16.93000           2.454646          -36.39817
        16.94000           2.409139          -36.19270
        16.95000           2.368921          -35.98593
        16.96000           2.333762          -35.77845
        16.97000           2.303368          -35.57055
        16.98000           2.277462          -35.36255
        16.99000           2.255758          -35.15455
        17.00000           2.238020          -34.94671
        17.01000           2.224030          -34.73898
        17.02000           2.213622          -34.53141
        17.03000           2.206664          -34.32388
        17.04000           2.203066          -34.11637
        17.05000           2.202778          -33.90871
        17.06000           2.205790          -33.70083
        17.07000           2.212127          -33.49255
        17.08000           2.221856          -33.28375
        17.09000           2.235083          -33.07423
        17.10000           2.251951          -32.86387
        17.11000           2.272655          -32.65245
        17.12000           2.297423          -32.43985
        17.13000           2.326550          -32.22583
        17.14000           2.360368          -32.01028
        17.15000           2.399291          -31.79297
        17.16000           2.443781          -31.57380
        17.17000           2.494402          -31.35257
        17.18000           2.551784          -31.12920
        17.19000           2.616681          -30.90357
        17.20000           2.689945          -30.67566
        17.21000           2.772544          -30.44556
        17.22000           2.865631          -30.21334
        17.23000           2.970457          -29.97936
        17.24000           3.088500          -29.74402
        17.25000           3.221332          -29.50808
        17.26000           3.370762          -29.27256
        17.27000           3.538629          -29.03896
        17.28000           3.726929          -28.80919
        17.29000           3.937495          -28.58599
        17.30000           4.172060          -28.37263
        17.31000           4.431743          -28.17340
        17.32000           4.716995          -27.99325
        17.33000           5.026849          -27.83794
        17.34000           5.358832          -27.71345
        17.35000           5.708241          -27.62538
        17.36000           6.068553          -27.57794
        17.37000           6.431645          -27.57281
        17.38000           6.789635          -27.60837
        17.39000           7.136366          -27.67990
        17.40000           7.469677          -27.78099
        17.41000           7.791625          -27.90603
        17.42000           8.107969          -28.05314
        17.43000           8.425208          -28.22583
        17.44000           8.747724          -28.43345
        17.45000           9.074230          -28.68960
        17.46000           9.395882          -29.00954
        17.47000           9.694899          -29.40600
        17.48000           9.945733          -29.88520
        17.49000           10.11786          -30.44201
        17.50000           10.18169          -31.05797
        17.51000           10.11539          -31.70132
        17.52000           9.911084          -32.33250
        17.53000           9.577501          -32.91108
        17.54000           9.137655          -33.40448
        17.55000           8.623435          -33.79221
        17.56000           8.068269          -34.06762
        17.57000           7.502188          -34.23501
        17.58000           6.948601          -34.30627
        17.59000           6.423322          -34.29676
        17.60000           5.935970          -34.22247
        17.61000           5.490793          -34.09814
        17.62000           5.088783          -33.93653
        17.63000           4.728399          -33.74802
        17.64000           4.407063          -33.54090
        17.65000           4.121362          -33.32142
        17.66000           3.867903          -33.09446
        17.67000           3.643206          -32.86349
        17.68000           3.444169          -32.63114
        17.69000           3.267863          -32.39919
        17.70000           3.111791          -32.16900
        17.71000           2.973677          -31.94138
        17.72000           2.851632          -31.71697
        17.73000           2.743965          -31.49605
        17.74000           2.649309          -31.27891
        17.75000           2.566449          -31.06558
        17.76000           2.494427          -30.85616
        17.77000           2.432412          -30.65060
        17.78000           2.379767          -30.44895
        17.79000           2.335948          -30.25117
        17.80000           2.300552          -30.05742
        17.81000           2.273239          -29.86776
        17.82000           2.253743          -29.68246
        17.83000           2.241812          -29.50178
        17.84000           2.237191          -29.32623
        17.85000           2.239559          -29.15633
        17.86000           2.248462          -28.99281
        17.87000           2.263230          -28.83644
        17.88000           2.282848          -28.68816
        17.89000           2.305877          -28.54867
        17.90000           2.330376          -28.41844
        17.91000           2.354021          -28.29724
        17.92000           2.374363          -28.18397
        17.93000           2.389315          -28.07644
        17.94000           2.397666          -27.97166
        17.95000           2.399478          -27.86627
        17.96000           2.396157          -27.75706
        17.97000           2.390169          -27.64173
        17.98000           2.384546          -27.51899
        17.99000           2.382376          -27.38875
        18.00000           2.386441          -27.25174
        18.01000           2.399039          -27.10935
        18.02000           2.421960          -26.96329
        18.03000           2.456530          -26.81557
        18.04000           2.503704          -26.66821
        18.05000           2.564063          -26.52341
        18.06000           2.637915          -26.38334
        18.07000           2.725211          -26.25027
        18.08000           2.825688          -26.12640
        18.09000           2.938812          -26.01398
        18.10000           3.064023          -25.91516
        18.11000           3.200639          -25.83244
        18.12000           3.347927          -25.76869
        18.13000           3.504533          -25.72771
        18.14000           3.667985          -25.71409
        18.15000           3.833639          -25.73289
        18.16000           3.994163          -25.78871
        18.17000           4.139198          -25.88389
        18.18000           4.256330          -26.01707
        18.19000           4.332837          -26.18150
        18.20000           4.358548          -26.36518
        18.21000           4.328412          -26.55209
        18.22000           4.244014          -26.72524
        18.23000           4.113260          -26.86984
        18.24000           3.948254          -26.97577
        18.25000           3.762722          -27.03843
        18.26000           3.569394          -27.05811
        18.27000           3.378758          -27.03855
        18.28000           3.198299          -26.98536
        18.29000           3.032919          -26.90480
        18.30000           2.885355          -26.80286
        18.31000           2.756730          -26.68482
        18.32000           2.647263          -26.55526
        18.33000           2.556510          -26.41784
        18.34000           2.483803          -26.27570
        18.35000           2.428304          -26.13135
        18.36000           2.389195          -25.98713
        18.37000           2.365618          -25.84501
        18.38000           2.356679          -25.70706
        18.39000           2.361322          -25.57526
        18.40000           2.378198          -25.45164
        18.41000           2.405512          -25.33818
        18.42000           2.440868          -25.23659
        18.43000           2.481295          -25.14796
        18.44000           2.523370          -25.07250
        18.45000           2.563712          -25.00908
        18.46000           2.599590          -24.95540
        18.47000           2.629634          -24.90812
        18.48000           2.654201          -24.86387
        18.49000           2.675300          -24.82006
        18.50000           2.695976          -24.77565
        18.51000           2.719416          -24.73153
        18.52000           2.747995          -24.69038
        18.53000           2.782552          -24.65611
        18.54000           2.821847          -24.63317
        18.55000           2.862423          -24.62556
        18.56000           2.898757          -24.63581
        18.57000           2.923994          -24.66401
        18.58000           2.931133          -24.70717
        18.59000           2.914593          -24.75923
        18.60000           2.871644          -24.81205
        18.61000           2.803105          -24.85694
        18.62000           2.713116          -24.88650
        18.63000           2.607943          -24.89578
        18.64000           2.494621          -24.88269
        18.65000           2.379596          -24.84764
        18.66000           2.268103          -24.79282
        18.67000           2.163886          -24.72131
        18.68000           2.069268          -24.63642
        18.69000           1.985547          -24.54139
        18.70000           1.913198          -24.43904
        18.71000           1.852244          -24.33188
        18.72000           1.802368          -24.22195
        18.73000           1.763124          -24.11110
        18.74000           1.733930          -24.00089
        18.75000           1.714133          -23.89285
        18.76000           1.702923          -23.78840
        18.77000           1.699290          -23.68897
        18.78000           1.701897          -23.59585
        18.79000           1.708998          -23.51022
        18.80000           1.718395          -23.43282
        18.81000           1.727518          -23.36374
        18.82000           1.733682          -23.30214
        18.83000           1.734511          -23.24619
        18.84000           1.728434          -23.19314
        18.85000           1.715059          -23.13983
        18.86000           1.695257          -23.08320
        18.87000           1.670930          -23.02089
        18.88000           1.644538          -22.95151
        18.89000           1.618633          -22.87462
        18.90000           1.595486          -22.79058
        18.91000           1.576949          -22.70026
        18.92000           1.564408          -22.60472
        18.93000           1.558890          -22.50518
        18.94000           1.561153          -22.40272
        18.95000           1.571811          -22.29846
        18.96000           1.591425          -22.19342
        18.97000           1.620547          -22.08871
        18.98000           1.659788          -21.98539
        18.99000           1.709779          -21.88487
        19.00000           1.771200          -21.78868
        19.01000           1.844645          -21.69885
        19.02000           1.930574          -21.61781
        19.03000           2.029043          -21.54861
        19.04000           2.139443          -21.49495
        19.05000           2.260186          -21.46103
        19.06000           2.388133          -21.45137
        19.07000           2.518321          -21.47027
        19.08000           2.643565          -21.52087
        19.09000           2.754829          -21.60418
        19.10000           2.841950          -21.71767
        19.11000           2.895394          -21.85491
        19.12000           2.908190          -22.00551
        19.13000           2.877744          -22.15688
        19.14000           2.806521          -22.29633
        19.15000           2.701326          -22.41354
        19.16000           2.571631          -22.50194
        19.17000           2.427415          -22.55907
        19.18000           2.277699          -22.58584
        19.19000           2.129468          -22.58541
        19.20000           1.987650          -22.56203
        19.21000           1.855162          -22.52022
        19.22000           1.733511          -22.46415
        19.23000           1.623067          -22.39745
        19.24000           1.523596          -22.32310
        19.25000           1.434401          -22.24344
        19.26000           1.354648          -22.16033
        19.27000           1.283384          -22.07513
        19.28000           1.219708          -21.98886
        19.29000           1.162734          -21.90228
        19.30000           1.111685          -21.81596
        19.31000           1.065835          -21.73023
        19.32000           1.024567          -21.64540
        19.33000           0.987316          -21.56162
        19.34000           0.953611          -21.47902
        19.35000           0.923020          -21.39762
        19.36000           0.895189          -21.31750
        19.37000           0.869789          -21.23864
        19.38000           0.846555          -21.16104
        19.39000           0.825237          -21.08466
        19.40000           0.805632          -21.00945
        19.41000           0.787560          -20.93542
        19.42000           0.770854          -20.86247
        19.43000           0.755382          -20.79061
        19.44000           0.741016          -20.71976
        19.45000           0.727651          -20.64990
        19.46000           0.715190          -20.58095
        19.47000           0.703552          -20.51291
        19.48000           0.692659          -20.44572
        19.49000           0.682447          -20.37934
        19.50000           0.672856          -20.31373
        19.51000           0.663836          -20.24888
        19.52000           0.655336          -20.18473
        19.53000           0.647319          -20.12125
        19.54000           0.639743          -20.05841
        19.55000           0.632577          -19.99621
        19.56000           0.625789          -19.93458
        19.57000           0.619352          -19.87352
        19.58000           0.613241          -19.81300
        19.59000           0.607434          -19.75300
        19.60000           0.601910          -19.69349
        19.61000           0.596651          -19.63447
        19.62000           0.591640          -19.57588
        19.63000           0.586861          -19.51775
        19.64000           0.582300          -19.46002
        19.65000           0.577946          -19.40271
        19.66000           0.573785          -19.34578
        19.67000           0.569809          -19.28922
        19.68000           0.566005          -19.23301
        19.69000           0.562366          -19.17715
        19.70000           0.558884          -19.12161
        19.71000           0.555551          -19.06639
        19.72000           0.552359          -19.01147
        19.73000           0.549304          -18.95685
        19.74000           0.546378          -18.90249
        19.75000           0.543578          -18.84841
        19.76000           0.540897          -18.79460
        19.77000           0.538332          -18.74102
        19.78000           0.535879          -18.68768
        19.79000           0.533533          -18.63458
        19.80000           0.531292          -18.58169
        19.81000           0.529153          -18.52901
        19.82000           0.527113          -18.47654
        19.83000           0.525170          -18.42424
        19.84000           0.523321          -18.37214
        19.85000           0.521565          -18.32021
        19.86000           0.519901          -18.26845
        19.87000           0.518327          -18.21684
        19.88000           0.516842          -18.16539
        19.89000           0.515446          -18.11407
        19.90000           0.514139          -18.06290
        19.91000           0.512919          -18.01185
        19.92000           0.511788          -17.96092
        19.93000           0.510746          -17.91010
        19.94000           0.509794          -17.85938
        19.95000           0.508932          -17.80876
        19.96000           0.508163          -17.75824
        19.97000           0.507488          -17.70778
        19.98000           0.506910          -17.65741
        19.99000           0.506432          -17.60709
        20.00000           0.506058          -17.55684
# 
# 11/10/2023 at 10:05 yambo @ unimi-XPS-8930 [start]
# 11/10/2023 at 10:05                        [end]
#
# .-Input file  yambo.in
# | rim_cut                          # [R] Coulomb potential
# | optics                           # [R] Linear Response optical properties
# | dipoles                          # [R] Oscillator strenghts (or dipoles)
# | bse                              # [R][BSE] Bethe Salpeter Equation.
# | ElecTemp= 0.025861         eV    # Electronic Temperature
# | BoseTemp= 0.025861         eV    # Bosonic Temperature
# | DIP_Threads= 1                   # [OPENMP/X] Number of threads for dipoles
# | BS_nCPU_LinAlg_INV= 1            # [PARALLEL] CPUs for Linear Algebra (if -1 it is automatically set)
# | BS_nCPU_LinAlg_DIAGO= 1          # [PARALLEL] CPUs for Linear Algebra (if -1 it is automatically set)
# | X_Threads= 1                     # [OPENMP/X] Number of threads for response functions
# | K_Threads= 1                     # [OPENMP/BSK] Number of threads for response functions
# | RandQpts=0                       # [RIM] Number of random q-points in the BZ
# | RandGvec= 1                RL    # [RIM] Coulomb interaction RS components
# | CUTGeo= "ws xyz"                 # [CUT] Coulomb Cutoff geometry: box/cylinder/sphere/ws/slab X/Y/Z/XY..
# | % CUTBox
# |  0.000000 | 0.000000 | 0.000000 |        # [CUT] [au] Box sides
# | %
# | CUTRadius= 0.000000              # [CUT] [au] Sphere/Cylinder radius
# | CUTCylLen= 0.000000              # [CUT] [au] Cylinder length
# | CUTwsGvec= 0.700000              # [CUT] WS cutoff: number of G to be modified
# | BSKmod= "IP"                     # [BSE] IP/Hartree/HF/ALDA/SEX/BSfxc
# | BSEmod= "retarded"               # [BSE] resonant/retarded/coupling
# | Lkind= "Lbar"                    # [BSE,X] bar(default)/full
# | DipBandsALL                    # [DIP] Compute all bands range, not only valence and conduction
# | DipComputed= "R V P"             # [DIP] [default R P V; extra P2 Spin Orb]
# | DbGdQsize= 1.000000              # [X,DbGd][o/o] Percentual of the total DbGd transitions to be used
# | BSENGexx= 20395            RL    # [BSK] Exchange components
# | % BSEQptR
# |  1 | 1 |                             # [BSK] Transferred momenta range
# | %
# | % BSEBands
# |   1 | 20 |                           # [BSK] Bands range
# | %
# | % BEnRange
# |   0.00000 | 20.00000 |         eV    # [BSS] Energy range
# | %
# | % BDmRange
# |  0.100000 | 0.100000 |         eV    # [BSS] Damping range
# | %
# | BEnSteps= 2001                   # [BSS] Energy steps
# | % BLongDir
# |  0.100000E-4 |  0.00000    |  0.00000    # [BSS] [cc] Electric Field
# | %
# | BSEprop= "abs trace dichr jdos"  # [BSS] Can be any among abs/jdos/kerr/magn/dich/photolum/esrt
# | BSEdips= "none"                  # [BSS] Can be "trace/none" or "xy/xz/yz" to define off-diagonal rotation plane
