#                                                                     
#   __   __     _        __  __       ____      U  ___  u             
#   \ \ / / U  /"\  U u |" \/ "| u U | __") u    \/"_ \/              
#    \ V /   \/ _ \/   \| |\/| |/   \|  _ \/     | | | |              
#   U_|"|_u  / ___ \    | |  | |     | |_) | .-,_| |_| |              
#     |_|   /_/   \_\   |_|  |_|     |____/   \_)-\___/               
# .-,//|(_   \\    >>  <<,-,,-.     _|| \\_        \\                 
#  \_) (__) (__)  (__)  (./  \.)   (__) (__)      (__)                
#                                                                     
#                                                                     
# Version 5.2.0 Revision 22368 Hash (prev commit) b42959ab6a          
#                    Branch is develop                                
#         MPI+OpenMP+SLK+SLEPC+HDF5_MPI_IO Build                      
#                http://www.yambo-code.org                            
#
# Polarizability  ( -<<X>> ) @ Q(1):  0.999999975E-5   0.00000000      0.00000000    [q->0 direction]
#
# Polarizability units: volume
#
# [GEN] GF Energies                               : Perdew, Burke & Ernzerhof(X)+Perdew, Burke & Ernzerhof(C)
# [GEN] Green`s Function                          : Retarded
#
# [GEN] Gauge                                     : Length
# [GEN] [r,Vnl] included                          : yes
#
# DIP band range                                  :   1  20
# DIP band range limits                           :  20   1
# DIP e/h energy range                            :  -1.00000000     -1.00000000    [eV]
# RL vectors in the sum                           :  2637
# [r,Vnl] included                                : yes
# Bands ordered                                   : no
# Direct v evaluation                             : no
# Approach used                                   : G-space v
# Dipoles computed                                : R V P
# Wavefunctions                                   : Perdew, Burke & Ernzerhof(X)+Perdew, Burke & Ernzerhof(C)
#
#
#    E[1] [eV]          Im(alpha)          Re(alpha)
#
        0.000000           0.000000           55.57419
        0.010000           0.001914           55.57428
        0.020000           0.003827           55.57458
        0.030000           0.005741           55.57506
        0.040000           0.007655           55.57573
        0.050000           0.009569           55.57658
        0.060000           0.011483           55.57764
        0.070000           0.013398           55.57889
        0.080000           0.015313           55.58033
        0.090000           0.017228           55.58195
        0.100000           0.019144           55.58376
        0.110000           0.021061           55.58576
        0.120000           0.022978           55.58797
        0.130000           0.024895           55.59036
        0.140000           0.026814           55.59293
        0.150000           0.028733           55.59571
        0.160000           0.030653           55.59869
        0.170000           0.032574           55.60185
        0.180000           0.034495           55.60519
        0.190000           0.036418           55.60874
        0.200000           0.038342           55.61248
        0.210000           0.040266           55.61640
        0.220000           0.042192           55.62052
        0.230000           0.044119           55.62483
        0.240000           0.046047           55.62933
        0.250000           0.047977           55.63402
        0.260000           0.049908           55.63890
        0.270000           0.051840           55.64399
        0.280000           0.053774           55.64928
        0.290000           0.055709           55.65475
        0.300000           0.057645           55.66042
        0.310000           0.059584           55.66628
        0.320000           0.061524           55.67231
        0.330000           0.063465           55.67855
        0.340000           0.065409           55.68500
        0.350000           0.067354           55.69164
        0.360000           0.069301           55.69846
        0.370000           0.071250           55.70547
        0.380000           0.073202           55.71270
        0.390000           0.075155           55.72010
        0.400000           0.077110           55.72770
        0.410000           0.079067           55.73550
        0.420000           0.081027           55.74350
        0.430000           0.082989           55.75170
        0.440000           0.084953           55.76010
        0.450000           0.086920           55.76868
        0.460000           0.088889           55.77745
        0.470000           0.090861           55.78645
        0.480000           0.092835           55.79562
        0.490000           0.094812           55.80498
        0.500000           0.096791           55.81455
        0.510000           0.098773           55.82434
        0.520000           0.100758           55.83430
        0.530000           0.102746           55.84446
        0.540000           0.104737           55.85482
        0.550000           0.106730           55.86538
        0.560000           0.108727           55.87616
        0.570000           0.110727           55.88712
        0.580000           0.112730           55.89827
        0.590000           0.114736           55.90963
        0.600000           0.116746           55.92120
        0.610000           0.118758           55.93296
        0.620000           0.120775           55.94492
        0.630000           0.122794           55.95710
        0.640000           0.124817           55.96946
        0.650000           0.126844           55.98203
        0.660000           0.128875           55.99480
        0.670000           0.130909           56.00777
        0.680000           0.132946           56.02096
        0.690000           0.134988           56.03435
        0.700000           0.137034           56.04794
        0.710000           0.139083           56.06173
        0.720000           0.141137           56.07573
        0.730000           0.143194           56.08992
        0.740000           0.145256           56.10434
        0.750000           0.147322           56.11896
        0.760000           0.149392           56.13379
        0.770000           0.151467           56.14880
        0.780000           0.153546           56.16403
        0.790000           0.155629           56.17947
        0.800000           0.157717           56.19513
        0.810000           0.159810           56.21100
        0.820000           0.161907           56.22706
        0.830000           0.164009           56.24334
        0.840000           0.166116           56.25983
        0.850000           0.168228           56.27654
        0.860000           0.170344           56.29345
        0.870000           0.172466           56.31057
        0.880000           0.174593           56.32791
        0.890000           0.176725           56.34546
        0.900000           0.178862           56.36323
        0.910000           0.181004           56.38120
        0.920000           0.183152           56.39938
        0.930000           0.185306           56.41779
        0.940000           0.187464           56.43641
        0.950000           0.189629           56.45525
        0.960000           0.191799           56.47431
        0.970000           0.193975           56.49356
        0.980000           0.196156           56.51305
        0.990000           0.198344           56.53276
        1.000000           0.200538           56.55268
        1.010000           0.202737           56.57283
        1.020000           0.204943           56.59318
        1.030000           0.207155           56.61378
        1.040000           0.209373           56.63457
        1.050000           0.211597           56.65561
        1.060000           0.213828           56.67685
        1.070000           0.216066           56.69833
        1.080000           0.218310           56.72002
        1.090000           0.220561           56.74195
        1.100000           0.222818           56.76408
        1.110000           0.225083           56.78647
        1.120000           0.227354           56.80906
        1.130000           0.229632           56.83187
        1.140000           0.231918           56.85494
        1.150000           0.234210           56.87821
        1.160000           0.236510           56.90173
        1.170000           0.238817           56.92546
        1.180000           0.241132           56.94944
        1.190000           0.243454           56.97365
        1.200000           0.245784           56.99809
        1.210000           0.248121           57.02276
        1.220000           0.250467           57.04766
        1.230000           0.252820           57.07280
        1.240000           0.255181           57.09817
        1.250000           0.257550           57.12378
        1.260000           0.259927           57.14963
        1.270000           0.262313           57.17570
        1.280000           0.264707           57.20205
        1.290000           0.267109           57.22860
        1.300000           0.269520           57.25541
        1.310000           0.271940           57.28245
        1.320000           0.274368           57.30973
        1.330000           0.276805           57.33727
        1.340000           0.279251           57.36503
        1.350000           0.281707           57.39305
        1.360000           0.284171           57.42132
        1.370000           0.286644           57.44982
        1.380000           0.289127           57.47859
        1.390000           0.291619           57.50759
        1.400000           0.294121           57.53685
        1.410000           0.296632           57.56635
        1.420000           0.299154           57.59610
        1.430000           0.301685           57.62611
        1.440000           0.304226           57.65639
        1.450000           0.306777           57.68688
        1.460000           0.309338           57.71766
        1.470000           0.311910           57.74868
        1.480000           0.314492           57.77997
        1.490000           0.317084           57.81149
        1.500000           0.319688           57.84332
        1.510000           0.322302           57.87537
        1.520000           0.324927           57.90770
        1.530000           0.327562           57.94029
        1.540000           0.330209           57.97316
        1.550000           0.332868           58.00627
        1.560000           0.335537           58.03964
        1.570000           0.338218           58.07331
        1.580000           0.340911           58.10721
        1.590000           0.343616           58.14140
        1.600000           0.346332           58.17587
        1.610000           0.349060           58.21059
        1.620000           0.351801           58.24559
        1.630000           0.354553           58.28088
        1.640000           0.357319           58.31641
        1.650000           0.360096           58.35226
        1.660000           0.362886           58.38834
        1.670000           0.365689           58.42474
        1.680000           0.368505           58.46141
        1.690000           0.371334           58.49835
        1.700000           0.374176           58.53557
        1.710000           0.377032           58.57308
        1.720000           0.379901           58.61091
        1.730000           0.382784           58.64898
        1.740000           0.385680           58.68737
        1.750000           0.388591           58.72604
        1.760000           0.391515           58.76498
        1.770000           0.394454           58.80423
        1.780000           0.397407           58.84378
        1.790000           0.400375           58.88363
        1.800000           0.403357           58.92376
        1.810000           0.406355           58.96419
        1.820000           0.409367           59.00493
        1.830000           0.412394           59.04597
        1.840000           0.415437           59.08732
        1.850000           0.418496           59.12895
        1.860000           0.421570           59.17091
        1.870000           0.424659           59.21318
        1.880000           0.427765           59.25574
        1.890000           0.430887           59.29861
        1.900000           0.434026           59.34180
        1.910000           0.437181           59.38529
        1.920000           0.440352           59.42913
        1.930000           0.443541           59.47328
        1.940000           0.446747           59.51772
        1.950000           0.449969           59.56251
        1.960000           0.453210           59.60760
        1.970000           0.456468           59.65302
        1.980000           0.459744           59.69876
        1.990000           0.463038           59.74485
        2.000000           0.466350           59.79125
        2.010000           0.469681           59.83800
        2.020000           0.473030           59.88507
        2.030000           0.476398           59.93247
        2.040000           0.479785           59.98024
        2.050000           0.483191           60.02831
        2.060000           0.486617           60.07672
        2.070000           0.490063           60.12550
        2.080000           0.493528           60.17461
        2.090000           0.497014           60.22405
        2.100000           0.500519           60.27388
        2.110000           0.504046           60.32403
        2.120000           0.507593           60.37457
        2.130000           0.511161           60.42542
        2.140000           0.514751           60.47665
        2.150000           0.518362           60.52823
        2.160000           0.521994           60.58017
        2.170000           0.525649           60.63247
        2.180000           0.529326           60.68516
        2.190000           0.533025           60.73820
        2.200000           0.536747           60.79162
        2.210000           0.540492           60.84540
        2.220000           0.544260           60.89956
        2.230000           0.548052           60.95409
        2.240000           0.551867           61.00901
        2.250000           0.555707           61.06430
        2.260000           0.559571           61.11999
        2.270000           0.563459           61.17607
        2.280000           0.567372           61.23253
        2.290000           0.571311           61.28938
        2.300000           0.575274           61.34660
        2.310000           0.579264           61.40425
        2.320000           0.583279           61.46227
        2.330000           0.587321           61.52073
        2.340000           0.591389           61.57957
        2.350000           0.595484           61.63882
        2.360000           0.599607           61.69847
        2.370000           0.603757           61.75856
        2.380000           0.607934           61.81906
        2.390000           0.612141           61.87995
        2.400000           0.616375           61.94130
        2.410000           0.620638           62.00304
        2.420000           0.624930           62.06523
        2.430000           0.629252           62.12785
        2.440000           0.633604           62.19088
        2.450000           0.637986           62.25436
        2.460000           0.642398           62.31828
        2.470000           0.646842           62.38265
        2.480000           0.651317           62.44746
        2.490000           0.655823           62.51270
        2.500000           0.660361           62.57838
        2.510000           0.664932           62.64455
        2.520000           0.669536           62.71115
        2.530000           0.674173           62.77824
        2.540000           0.678843           62.84577
        2.550000           0.683548           62.91378
        2.560000           0.688286           62.98227
        2.570000           0.693060           63.05120
        2.580000           0.697869           63.12063
        2.590000           0.702713           63.19054
        2.600000           0.707594           63.26093
        2.610000           0.712511           63.33182
        2.620000           0.717465           63.40319
        2.630000           0.722457           63.47505
        2.640000           0.727486           63.54742
        2.650000           0.732554           63.62030
        2.660000           0.737661           63.69367
        2.670000           0.742807           63.76758
        2.680000           0.747993           63.84198
        2.690000           0.753219           63.91689
        2.700000           0.758487           63.99235
        2.710000           0.763795           64.06833
        2.720000           0.769145           64.14484
        2.730000           0.774538           64.22187
        2.740000           0.779974           64.29945
        2.750000           0.785452           64.37758
        2.760000           0.790976           64.45625
        2.770000           0.796544           64.53549
        2.780000           0.802156           64.61526
        2.790000           0.807815           64.69560
        2.800000           0.813520           64.77651
        2.810000           0.819272           64.85802
        2.820000           0.825071           64.94006
        2.830000           0.830919           65.02269
        2.840000           0.836815           65.10592
        2.850000           0.842761           65.18973
        2.860000           0.848757           65.27414
        2.870000           0.854803           65.35915
        2.880000           0.860901           65.44475
        2.890000           0.867052           65.53098
        2.900000           0.873254           65.61779
        2.910000           0.879511           65.70527
        2.920000           0.885821           65.79335
        2.930000           0.892187           65.88208
        2.940000           0.898608           65.97142
        2.950000           0.905085           66.06142
        2.960000           0.911620           66.15206
        2.970000           0.918213           66.24338
        2.980000           0.924865           66.33532
        2.990000           0.931575           66.42793
        3.000000           0.938347           66.52122
        3.010000           0.945180           66.61520
        3.020000           0.952075           66.70985
        3.030000           0.959032           66.80518
        3.040000           0.966054           66.90125
        3.050000           0.973140           66.99798
        3.060000           0.980292           67.09542
        3.070000           0.987510           67.19359
        3.080000           0.994796           67.29249
        3.090000           1.002150           67.39211
        3.100000           1.009574           67.49245
        3.110000           1.017068           67.59357
        3.120000           1.024634           67.69540
        3.130000           1.032272           67.79800
        3.140000           1.039983           67.90136
        3.150000           1.047769           68.00549
        3.160000           1.055631           68.11040
        3.170000           1.063570           68.21609
        3.180000           1.071586           68.32262
        3.190000           1.079682           68.42991
        3.200000           1.087857           68.53799
        3.210000           1.096115           68.64692
        3.220000           1.104455           68.75667
        3.230000           1.112878           68.86726
        3.240000           1.121386           68.97868
        3.250000           1.129982           69.09096
        3.260000           1.138665           69.20412
        3.270000           1.147437           69.31812
        3.280000           1.156299           69.43297
        3.290000           1.165253           69.54874
        3.300000           1.174301           69.66541
        3.310000           1.183443           69.78297
        3.320000           1.192681           69.90145
        3.330000           1.202016           70.02086
        3.340000           1.211452           70.14122
        3.350000           1.220988           70.26249
        3.360000           1.230626           70.38473
        3.370000           1.240368           70.50790
        3.380000           1.250215           70.63210
        3.390000           1.260170           70.75726
        3.400000           1.270234           70.88339
        3.410000           1.280409           71.01055
        3.420000           1.290696           71.13875
        3.430000           1.301098           71.26794
        3.440000           1.311616           71.39818
        3.450000           1.322253           71.52948
        3.460000           1.333009           71.66185
        3.470000           1.343888           71.79527
        3.480000           1.354891           71.92979
        3.490000           1.366020           72.06541
        3.500000           1.377278           72.20214
        3.510000           1.388666           72.34000
        3.520000           1.400187           72.47899
        3.530000           1.411842           72.61914
        3.540000           1.423635           72.76045
        3.550000           1.435568           72.90293
        3.560000           1.447644           73.04662
        3.570000           1.459864           73.19151
        3.580000           1.472232           73.33761
        3.590000           1.484748           73.48494
        3.600000           1.497417           73.63354
        3.610000           1.510242           73.78342
        3.620000           1.523224           73.93455
        3.630000           1.536366           74.08697
        3.640000           1.549673           74.24073
        3.650000           1.563146           74.39581
        3.660000           1.576788           74.55222
        3.670000           1.590604           74.70999
        3.680000           1.604595           74.86917
        3.690000           1.618765           75.02974
        3.700000           1.633118           75.19171
        3.710000           1.647656           75.35511
        3.720000           1.662384           75.51997
        3.730000           1.677305           75.68629
        3.740000           1.692422           75.85414
        3.750000           1.707740           76.02348
        3.760000           1.723262           76.19435
        3.770000           1.738991           76.36676
        3.780000           1.754934           76.54073
        3.790000           1.771092           76.71628
        3.800000           1.787470           76.89344
        3.810000           1.804073           77.07227
        3.820000           1.820906           77.25274
        3.830000           1.837973           77.43490
        3.840000           1.855278           77.61877
        3.850000           1.872827           77.80434
        3.860000           1.890623           77.99165
        3.870000           1.908674           78.18076
        3.880000           1.926982           78.37168
        3.890000           1.945554           78.56440
        3.900000           1.964397           78.75899
        3.910000           1.983513           78.95547
        3.920000           2.002911           79.15383
        3.930000           2.022595           79.35413
        3.940000           2.042573           79.55638
        3.950000           2.062850           79.76067
        3.960000           2.083431           79.96692
        3.970000           2.104326           80.17529
        3.980000           2.125539           80.38567
        3.990000           2.147077           80.59821
        4.000000           2.168949           80.81289
        4.010000           2.191162           81.02972
        4.020000           2.213722           81.24878
        4.030000           2.236640           81.47009
        4.040000           2.259921           81.69368
        4.050000           2.283574           81.91959
        4.060000           2.307607           82.14785
        4.070000           2.332032           82.37850
        4.080000           2.356855           82.61160
        4.090000           2.382085           82.84717
        4.100000           2.407734           83.08523
        4.110000           2.433811           83.32587
        4.120000           2.460326           83.56913
        4.130000           2.487289           83.81496
        4.140000           2.514713           84.06350
        4.150000           2.542605           84.31476
        4.160000           2.570981           84.56879
        4.170000           2.599850           84.82564
        4.180000           2.629226           85.08537
        4.190000           2.659122           85.34805
        4.200000           2.689550           85.61369
        4.210000           2.720525           85.88229
        4.220000           2.752059           86.15400
        4.230000           2.784168           86.42889
        4.240000           2.816867           86.70692
        4.250000           2.850171           86.98820
        4.260000           2.884096           87.27280
        4.270000           2.918660           87.56073
        4.280000           2.953879           87.85218
        4.290000           2.989771           88.14705
        4.300000           3.026356           88.44550
        4.310000           3.063649           88.74759
        4.320000           3.101674           89.05333
        4.330000           3.140450           89.36289
        4.340000           3.179997           89.67631
        4.350000           3.220340           89.99358
        4.360000           3.261500           90.31490
        4.370000           3.303501           90.64027
        4.380000           3.346367           90.96979
        4.390000           3.390127           91.30357
        4.400000           3.434803           91.64170
        4.410000           3.480425           91.98425
        4.420000           3.527023           92.33128
        4.430000           3.574625           92.68290
        4.440000           3.623261           93.03928
        4.450000           3.672968           93.40041
        4.460000           3.723775           93.76646
        4.470000           3.775719           94.13754
        4.480000           3.828839           94.51376
        4.490000           3.883172           94.89520
        4.500000           3.938755           95.28202
        4.510000           3.995630           95.67430
        4.520000           4.053844           96.07216
        4.530000           4.113439           96.47576
        4.540000           4.174464           96.88526
        4.550000           4.236968           97.30075
        4.560000           4.301003           97.72238
        4.570000           4.366621           98.15034
        4.580000           4.433881           98.58472
        4.590000           4.502844           99.02569
        4.600000           4.573570           99.47345
        4.610000           4.646121           99.92810
        4.620000           4.720572           100.3899
        4.630000           4.796988           100.8590
        4.640000           4.875451           101.3356
        4.650000           4.956035           101.8198
        4.660000           5.038825           102.3120
        4.670000           5.123910           102.8122
        4.680000           5.211380           103.3207
        4.690000           5.301329           103.8377
        4.700000           5.393866           104.3635
        4.710000           5.489094           104.8984
        4.720000           5.587129           105.4425
        4.730000           5.688089           105.9961
        4.740000           5.792105           106.5595
        4.750000           5.899305           107.1330
        4.760000           6.009834           107.7169
        4.770000           6.123844           108.3114
        4.780000           6.241492           108.9170
        4.790000           6.362949           109.5340
        4.800000           6.488393           110.1626
        4.810000           6.618017           110.8033
        4.820000           6.752021           111.4565
        4.830000           6.890621           112.1226
        4.840000           7.034050           112.8019
        4.850000           7.182552           113.4949
        4.860000           7.336388           114.2022
        4.870000           7.495832           114.9240
        4.880000           7.661190           115.6611
        4.890000           7.832778           116.4138
        4.900000           8.010942           117.1828
        4.910000           8.196046           117.9686
        4.920000           8.388491           118.7719
        4.930000           8.588693           119.5932
        4.940000           8.797115           120.4333
        4.950000           9.014251           121.2928
        4.960000           9.240630           122.1726
        4.970000           9.476828           123.0735
        4.980000           9.723464           123.9961
        4.990000           9.981212           124.9415
        5.000000           10.25080           125.9105
        5.010000           10.53304           126.9042
        5.020000           10.82877           127.9235
        5.030000           11.13896           128.9697
        5.040000           11.46460           130.0437
        5.050000           11.80684           131.1469
        5.060000           12.16691           132.2805
        5.070000           12.54615           133.4459
        5.080000           12.94603           134.6445
        5.090000           13.36822           135.8780
        5.100000           13.81449           137.1479
        5.110000           14.28684           138.4560
        5.120000           14.78747           139.8040
        5.130000           15.31883           141.1940
        5.140000           15.88362           142.6280
        5.150000           16.48488           144.1081
        5.160000           17.12598           145.6367
        5.170000           17.81072           147.2161
        5.180000           18.54331           148.8488
        5.190000           19.32853           150.5376
        5.200000           20.17175           152.2851
        5.210000           21.07903           154.0943
        5.220000           22.05727           155.9682
        5.230000           23.11418           157.9095
        5.240000           24.25864           159.9213
        5.250000           25.50075           162.0066
        5.260000           26.85205           164.1681
        5.270000           28.32570           166.4084
        5.280000           29.93684           168.7296
        5.290000           31.70285           171.1330
        5.300000           33.64372           173.6191
        5.310000           35.78243           176.1869
        5.320000           38.14544           178.8335
        5.330000           40.76315           181.5534
        5.340000           43.67048           184.3372
        5.350000           46.90730           187.1705
        5.360000           50.51884           190.0318
        5.370000           54.55599           192.8909
        5.380000           59.07503           195.7047
        5.390000           64.13676           198.4143
        5.400000           69.80473           200.9400
        5.410000           76.14041           203.1747
        5.420000           83.19772           204.9789
        5.430000           91.01176           206.1737
        5.440000           99.58269           206.5365
        5.450000           108.8538           205.8023
        5.460000           118.6834           203.6730
        5.470000           128.8139           199.8438
        5.480000           138.8475           194.0492
        5.490000           148.2414           186.1317
        5.500000           156.3409           176.1229
        5.510000           162.4636           164.3125
        5.520000           166.0268           151.2692
        5.530000           166.6850           137.7851
        5.540000           164.4216           124.7430
        5.550000           159.5546           112.9515
        5.560000           152.6513           103.0067
        5.570000           144.3936           95.22784
        5.580000           135.4464           89.67126
        5.590000           126.3705           86.19656
        5.600000           117.5820           84.54697
        5.610000           109.3555           84.42066
        5.620000           101.8471           85.51933
        5.630000           95.12479           87.57595
        5.640000           89.19735           90.36580
        5.650000           84.03709           93.70844
        5.660000           79.59645           97.46325
        5.670000           75.81926           101.5237
        5.680000           72.64785           105.8110
        5.690000           70.02726           110.2680
        5.700000           67.90748           114.8550
        5.710000           66.24447           119.5448
        5.720000           65.00057           124.3203
        5.730000           64.14437           129.1718
        5.740000           63.65042           134.0956
        5.750000           63.49894           139.0918
        5.760000           63.67540           144.1642
        5.770000           64.17017           149.3187
        5.780000           64.97831           154.5630
        5.790000           66.09949           159.9067
        5.800000           67.53767           165.3601
        5.810000           69.30141           170.9346
        5.820000           71.40376           176.6421
        5.830000           73.86256           182.4947
        5.840000           76.70073           188.5047
        5.850000           79.94675           194.6843
        5.860000           83.63521           201.0450
        5.870000           87.80749           207.5975
        5.880000           92.51273           214.3509
        5.890000           97.80877           221.3116
        5.900000           103.7634           228.4830
        5.910000           110.4558           235.8633
        5.920000           117.9782           243.4438
        5.930000           126.4375           251.2066
        5.940000           135.9576           259.1206
        5.950000           146.6811           267.1371
        5.960000           158.7702           275.1831
        5.970000           172.4093           283.1537
        5.980000           187.8042           290.9015
        5.990000           205.1798           298.2224
        6.000000           224.7740           304.8382
        6.010000           246.8262           310.3759
        6.020000           271.5553           314.3450
        6.030000           299.1253           316.1114
        6.040000           329.5916           314.8780
        6.050000           362.8242           309.6785
        6.060000           398.4082           299.4009
        6.070000           435.5256           282.8604
        6.080000           472.8477           258.9470
        6.090000           508.4801           226.8606
        6.100000           540.0295           186.4126
        6.110000           564.8521           138.3239
        6.120000           580.4932           84.38927
        6.130000           585.2241           27.37774
        6.140000           578.4840          -29.36971
        6.150000           561.0378          -82.57045
        6.160000           534.7631          -129.5883
        6.170000           502.1790          -168.8000
        6.180000           465.9135          -199.6453
        6.190000           428.2918          -222.4309
        6.200000           391.1183          -238.0254
        6.210000           355.6344          -247.5643
        6.220000           322.5853          -252.2288
        6.230000           292.3326          -253.1120
        6.240000           264.9696          -251.1542
        6.250000           240.4184          -247.1263
        6.260000           218.5021          -241.6384
        6.270000           198.9954          -235.1622
        6.280000           181.6569          -228.0545
        6.290000           166.2488          -220.5813
        6.300000           152.5473          -212.9374
        6.310000           140.3481          -205.2639
        6.320000           129.4695          -197.6613
        6.330000           119.7495          -190.1991
        6.340000           111.0466          -182.9241
        6.350000           103.2376          -175.8665
        6.360000           96.21504          -169.0439
        6.370000           89.88596          -162.4654
        6.380000           84.16968          -156.1334
        6.390000           78.99628          -150.0457
        6.400000           74.30509          -144.1972
        6.410000           70.04344          -138.5805
        6.420000           66.16561          -133.1866
        6.430000           62.63177          -128.0060
        6.440000           59.40730          -123.0283
        6.450000           56.46206          -118.2434
        6.460000           53.76977          -113.6407
        6.470000           51.30754          -109.2102
        6.480000           49.05548          -104.9422
        6.490000           46.99633          -100.8269
        6.500000           45.11508          -96.85519
        6.510000           43.39909          -93.01867
        6.520000           41.83732          -89.30888
        6.530000           40.42066          -85.71814
        6.540000           39.14153          -82.23909
        6.550000           37.99397          -78.86507
        6.560000           36.97348          -75.58999
        6.570000           36.07696          -72.40831
        6.580000           35.30284          -69.31541
        6.590000           34.65097          -66.30740
        6.600000           34.12265          -63.38152
        6.610000           33.72077          -60.53640
        6.620000           33.44969          -57.77229
        6.630000           33.31533          -55.09163
        6.640000           33.32505          -52.49958
        6.650000           33.48738          -50.00492
        6.660000           33.81160          -47.62083
        6.670000           34.30682          -45.36617
        6.680000           34.98065          -43.26665
        6.690000           35.83680          -41.35617
        6.700000           36.87191          -39.67734
        6.710000           38.07094          -38.28138
        6.720000           39.40142          -37.22564
        6.730000           40.80749          -36.56833
        6.740000           42.20519          -36.35862
        6.750000           43.48223          -36.62264
        6.760000           44.50560          -37.34741
        6.770000           45.13930          -38.46783
        6.780000           45.27039          -39.86400
        6.790000           44.83557          -41.37427
        6.800000           43.83797          -42.82239
        6.810000           42.34587          -44.05072
        6.820000           40.47457          -44.94582
        6.830000           38.35872          -45.44988
        6.840000           36.12741          -45.55605
        6.850000           33.88751          -45.29495
        6.860000           31.71710          -44.71849
        6.870000           29.66654          -43.88635
        6.880000           27.76333          -42.85677
        6.890000           26.01819          -41.68152
        6.900000           24.43063          -40.40387
        6.910000           22.99328          -39.05862
        6.920000           21.69515          -37.67272
        6.930000           20.52363          -36.26668
        6.940000           19.46588          -34.85573
        6.950000           18.50957          -33.45096
        6.960000           17.64328          -32.06030
        6.970000           16.85671          -30.68924
        6.980000           16.14066          -29.34153
        6.990000           15.48698          -28.01954
        7.000000           14.88859          -26.72466
        7.010000           14.33926          -25.45754
        7.020000           13.83354          -24.21839
        7.030000           13.36672          -23.00691
        7.039999           12.93468          -21.82272
        7.050000           12.53380          -20.66508
        7.059999           12.16094          -19.53326
        7.070000           11.81336          -18.42638
        7.079999           11.48862          -17.34363
        7.090000           11.18461          -16.28403
        7.099999           10.89943          -15.24670
        7.110000           10.63144          -14.23077
        7.119999           10.37917          -13.23536
        7.130000           10.14131          -12.25960
        7.140000           9.916668          -11.30262
        7.150000           9.704255          -10.36380
        7.160000           9.503119          -9.442286
        7.170000           9.312418          -8.537354
        7.180000           9.131404          -7.648337
        7.190000           8.959400          -6.774562
        7.200000           8.795787          -5.915412
        7.210000           8.640018          -5.070266
        7.220000           8.491580          -4.238561
        7.230000           8.350016          -3.419772
        7.240000           8.214909          -2.613353
        7.250000           8.085876          -1.818812
        7.260000           7.962566          -1.035702
        7.270000           7.844661          -0.263522
        7.280000           7.731860           0.498128
        7.290000           7.623895           1.249674
        7.300000           7.520513           1.991503
        7.310000           7.421484           2.724005
        7.320000           7.326593           3.447532
        7.330000           7.235647           4.162447
        7.340000           7.148458           4.869084
        7.350000           7.064853           5.567746
        7.360000           6.984676           6.258751
        7.370000           6.907784           6.942403
        7.380000           6.834031           7.618993
        7.390000           6.763297           8.288791
        7.400000           6.695454           8.952062
        7.410000           6.630395           9.609064
        7.420000           6.568018           10.26005
        7.430000           6.508220           10.90524
        7.440000           6.450912           11.54489
        7.450000           6.396004           12.17923
        7.460000           6.343420           12.80845
        7.470000           6.293082           13.43278
        7.480000           6.244919           14.05243
        7.489999           6.198864           14.66758
        7.500000           6.154851           15.27850
        7.510000           6.112831           15.88525
        7.520000           6.072738           16.48809
        7.530000           6.034529           17.08718
        7.540000           5.998151           17.68270
        7.550000           5.963553           18.27485
        7.560000           5.930699           18.86375
        7.570000           5.899544           19.44958
        7.580000           5.870052           20.03251
        7.590000           5.842187           20.61269
        7.600000           5.815916           21.19028
        7.610000           5.791207           21.76542
        7.620000           5.768030           22.33826
        7.630000           5.746358           22.90895
        7.640000           5.726167           23.47762
        7.650000           5.707432           24.04444
        7.660000           5.690135           24.60952
        7.670000           5.674247           25.17301
        7.680000           5.659757           25.73504
        7.690000           5.646641           26.29576
        7.700000           5.634890           26.85526
        7.710000           5.624486           27.41373
        7.720000           5.615415           27.97125
        7.730000           5.607668           28.52797
        7.740000           5.601234           29.08401
        7.750000           5.596102           29.63950
        7.760000           5.592266           30.19459
        7.770000           5.589721           30.74935
        7.780000           5.588458           31.30396
        7.789999           5.588475           31.85850
        7.800000           5.589767           32.41313
        7.809999           5.592334           32.96796
        7.820000           5.596177           33.52309
        7.829999           5.601290           34.07868
        7.840000           5.607681           34.63483
        7.849999           5.615348           35.19168
        7.860000           5.624299           35.74935
        7.870000           5.634534           36.30799
        7.880000           5.646064           36.86767
        7.890000           5.658894           37.42853
        7.900000           5.673032           37.99072
        7.910000           5.688488           38.55436
        7.920000           5.705272           39.11953
        7.930000           5.723398           39.68645
        7.940000           5.742874           40.25518
        7.950000           5.763719           40.82589
        7.960000           5.785950           41.39869
        7.970000           5.809577           41.97375
        7.980000           5.834621           42.55112
        7.990000           5.861106           43.13105
        8.000000           5.889047           43.71362
        8.010000           5.918469           44.29898
        8.020000           5.949396           44.88727
        8.030000           5.981852           45.47865
        8.040000           6.015863           46.07324
        8.050000           6.051457           46.67122
        8.059999           6.088667           47.27275
        8.070000           6.127525           47.87795
        8.080000           6.168059           48.48702
        8.090000           6.210310           49.10009
        8.099999           6.254312           49.71738
        8.110000           6.300103           50.33900
        8.120000           6.347727           50.96513
        8.130000           6.397227           51.59600
        8.139999           6.448649           52.23172
        8.150000           6.502037           52.87254
        8.160000           6.557446           53.51862
        8.170000           6.614926           54.17017
        8.179999           6.674533           54.82736
        8.190000           6.736328           55.49044
        8.200000           6.800369           56.15957
        8.209999           6.866722           56.83501
        8.219999           6.935454           57.51699
        8.230000           7.006642           58.20575
        8.240001           7.080347           58.90143
        8.250000           7.156656           59.60436
        8.260000           7.235650           60.31477
        8.270000           7.317416           61.03291
        8.280000           7.402042           61.75906
        8.290000           7.489626           62.49346
        8.300000           7.580268           63.23644
        8.310000           7.674072           63.98829
        8.320000           7.771148           64.74927
        8.330000           7.871616           65.51975
        8.340000           7.975595           66.30002
        8.350000           8.083216           67.09039
        8.360000           8.194613           67.89125
        8.370000           8.309933           68.70294
        8.380000           8.429322           69.52583
        8.390000           8.552941           70.36033
        8.400000           8.680957           71.20682
        8.410000           8.813548           72.06572
        8.420000           8.950901           72.93746
        8.430000           9.093209           73.82250
        8.440000           9.240685           74.72126
        8.450000           9.393545           75.63427
        8.460000           9.552026           76.56206
        8.469999           9.716372           77.50510
        8.480000           9.886847           78.46395
        8.490000           10.06372           79.43921
        8.500000           10.24729           80.43141
        8.509999           10.43786           81.44126
        8.520000           10.63577           82.46935
        8.530000           10.84137           83.51641
        8.540000           11.05502           84.58305
        8.549999           11.27713           85.67008
        8.559999           11.50811           86.77829
        8.570000           11.74842           87.90844
        8.580000           11.99852           89.06142
        8.589999           12.25894           90.23808
        8.600000           12.53024           91.43946
        8.610001           12.81295           92.66640
        8.620000           13.10772           93.91994
        8.630000           13.41522           95.20119
        8.640000           13.73615           96.51133
        8.650001           14.07129           97.85148
        8.660000           14.42145           99.22292
        8.670000           14.78751           100.6270
        8.680000           15.17042           102.0651
        8.690001           15.57120           103.5386
        8.700000           15.99095           105.0491
        8.710000           16.43086           106.5984
        8.720000           16.89220           108.1880
        8.730000           17.37635           109.8198
        8.740000           17.88482           111.4957
        8.750000           18.41921           113.2177
        8.760000           18.98129           114.9881
        8.770000           19.57299           116.8090
        8.780000           20.19636           118.6830
        8.790000           20.85368           120.6126
        8.800000           21.54740           122.6004
        8.809999           22.28024           124.6494
        8.820000           23.05513           126.7627
        8.830000           23.87530           128.9435
        8.840000           24.74430           131.1952
        8.849999           25.66602           133.5216
        8.860000           26.64474           135.9266
        8.870000           27.68517           138.4142
        8.880000           28.79255           140.9891
        8.889999           29.97264           143.6557
        8.900000           31.23182           146.4192
        8.910000           32.57721           149.2849
        8.919999           34.01669           152.2584
        8.929999           35.55907           155.3456
        8.940000           37.21419           158.5531
        8.950000           38.99306           161.8875
        8.959999           40.90802           165.3557
        8.970000           42.97311           168.9657
        8.980000           45.20366           172.7245
        8.990000           47.61746           176.6408
        9.000000           50.23450           180.7228
        9.010000           53.07740           184.9792
        9.020000           56.17196           189.4188
        9.030000           59.54749           194.0503
        9.040000           63.23750           198.8821
        9.050000           67.28030           203.9221
        9.060000           71.71980           209.1773
        9.070000           76.60645           214.6530
        9.080000           81.99825           220.3522
        9.090000           87.96205           226.2747
        9.100000           94.57473           232.4154
        9.110000           101.9249           238.7623
        9.120000           110.1147           245.2946
        9.130000           119.2611           251.9784
        9.140000           129.4981           258.7625
        9.150000           140.9779           265.5728
        9.160000           153.8714           272.3030
        9.170000           168.3679           278.8060
        9.179999           184.6725           284.8793
        9.190000           202.9982           290.2494
        9.200000           223.5535           294.5521
        9.210000           246.5198           297.3109
        9.219999           272.0149           297.9166
        9.230000           300.0393           295.6119
        9.240000           330.4008           289.4941
        9.250000           362.6195           278.5482
        9.259999           395.8239           261.7335
        9.270000           428.6660           238.1407
        9.280000           459.3043           207.2237
        9.290000           485.5154           169.0752
        9.299999           504.9758           124.6618
        9.309999           515.6950           75.89824
        9.320000           516.4816           25.46104
        9.330000           507.2587          -23.66073
        9.340000           489.0893          -68.71252
        9.350000           463.8864          -107.6691
        9.360001           433.9579          -139.4413
        9.370000           401.5604          -163.8349
        9.380000           368.5950          -181.3294
        9.390000           336.4746          -192.8015
        9.400001           306.1291          -199.2853
        9.410000           278.0838          -201.8044
        9.420000           252.5630          -201.2785
        9.430000           229.5874          -198.4835
        9.440000           209.0515          -194.0464
        9.450000           190.7811          -188.4590
        9.460000           174.5709          -182.0979
        9.470000           160.2084          -175.2460
        9.480000           147.4888          -168.1133
        9.490000           136.2220          -160.8523
        9.500000           126.2359          -153.5724
        9.510000           117.3780          -146.3504
        9.520000           109.5137          -139.2388
        9.530000           102.5262          -132.2717
        9.540000           96.31387          -125.4704
        9.550000           90.78896          -118.8458
        9.559999           85.87604          -112.4022
        9.570000           81.51021          -106.1385
        9.580000           77.63593          -100.0502
        9.590000           74.20584          -94.12979
        9.599999           71.17958          -88.36859
        9.610000           68.52312          -82.75640
        9.620000           66.20802          -77.28236
        9.629999           64.21069          -71.93534
        9.639999           62.51212          -66.70399
        9.650000           61.09739          -61.57706
        9.660000           59.95541          -56.54359
        9.669999           59.07876          -51.59301
        9.679999           58.46358          -46.71523
        9.690000           58.10949          -41.90096
        9.700000           58.01975          -37.14149
        9.710000           58.20120          -32.43049
        9.720000           58.66459          -27.76201
        9.730000           59.42473          -23.13267
        9.740000           60.50082          -18.54192
        9.750000           61.91667          -13.99277
        9.760000           63.70100          -9.493183
        9.770000           65.88755          -5.057510
        9.780000           68.51494          -0.708598
        9.790000           71.62615           3.519741
        9.800000           75.26717           7.579543
        9.810000           79.48446           11.40505
        9.820000           84.32069           14.90873
        9.830000           89.80785           17.97776
        9.840000           95.95756           20.47188
        9.850000           102.7476           22.22498
        9.860000           110.1068           23.05256
        9.870000           117.8990           22.76890
        9.880000           125.9156           21.21476
        9.889999           133.8808           18.29377
        9.900000           141.4810           14.00774
        9.910000           148.4156           8.474458
        9.920000           154.4589           1.911568
        9.929999           159.5045          -5.418792
        9.940000           163.5672          -13.28697
        9.950000           166.7336          -21.56097
        9.960000           169.0795          -30.22635
        9.969999           170.5898          -39.34804
        9.980000           171.1182          -48.98698
        9.990000           170.4083          -59.10464
        10.00000           168.1724          -69.49599
        10.01000           164.2019          -79.78347
        10.02000           158.4614          -89.48094
        10.03000           151.1279          -98.10252
        10.04000           142.5584          -105.2697
        10.05000           133.2082          -110.7764
        10.06000           123.5377          -114.5963
        10.07000           113.9453          -116.8453
        10.08000           104.7280          -117.7284
        10.09000           96.07973          -117.4869
        10.10000           88.10576          -116.3604
        10.11000           80.84396          -114.5650
        10.12000           74.28643          -112.2835
        10.13000           68.39709          -109.6637
        10.14000           63.12474          -106.8214
        10.15000           58.41194          -103.8450
        10.16000           54.20044          -100.8006
        10.17000           50.43459          -97.73679
        10.18000           47.06306          -94.68855
        10.19000           44.03937          -91.68050
        10.20000           41.32227          -88.72948
        10.21000           38.87532          -85.84660
        10.22000           36.66663          -83.03872
        10.23000           34.66838          -80.30955
        10.24000           32.85629          -77.66057
        10.25000           31.20927          -75.09163
        10.26000           29.70895          -72.60147
        10.27000           28.33935          -70.18807
        10.28000           27.08654          -67.84883
        10.29000           25.93833          -65.58090
        10.30000           24.88409          -63.38115
        10.31000           23.91451          -61.24641
        10.32000           23.02141          -59.17356
        10.33000           22.19762          -57.15939
        10.34000           21.43682          -55.20083
        10.35000           20.73343          -53.29495
        10.36000           20.08256          -51.43884
        10.37000           19.47986          -49.62975
        10.38000           18.92153          -47.86510
        10.39000           18.40419          -46.14240
        10.40000           17.92487          -44.45930
        10.41000           17.48096          -42.81362
        10.42000           17.07017          -41.20330
        10.43000           16.69048          -39.62625
        10.44000           16.34021          -38.08105
        10.45000           16.01785          -36.56594
        10.46000           15.72211          -35.07955
        10.47000           15.45187          -33.62069
        10.48000           15.20617          -32.18839
        10.49000           14.98410          -30.78200
        10.50000           14.78478          -29.40108
        10.51000           14.60723          -28.04554
        10.52000           14.45026          -26.71557
        10.53000           14.31233          -25.41151
        10.54000           14.19140          -24.13389
        10.55000           14.08484          -22.88299
        10.56000           13.98942          -21.65880
        10.57000           13.90138          -20.46053
        10.58000           13.81668          -19.28640
        10.59000           13.73137          -18.13340
        10.60000           13.64218          -16.99733
        10.61000           13.54697          -15.87287
        10.62000           13.44527          -14.75427
        10.63000           13.33836          -13.63595
        10.64000           13.22906          -12.51328
        10.65000           13.12107          -11.38310
        10.66000           13.01827          -10.24379
        10.67000           12.92419          -9.094900
        10.68000           12.84159          -7.936995
        10.69000           12.77247          -6.770880
        10.70000           12.71808          -5.597612
        10.71000           12.67913          -4.418012
        10.72000           12.65592          -3.232670
        10.73000           12.64854          -2.041966
        10.74000           12.65696          -0.845903
        10.75000           12.68113           0.355616
        10.76000           12.72100           1.563042
        10.77000           12.77662           2.776932
        10.78000           12.84811           3.997940
        10.79000           12.93569           5.226986
        10.80000           13.03970           6.464804
        10.81000           13.16061           7.712453
        10.82000           13.29899           8.971049
        10.83000           13.45557           10.24176
        10.84000           13.63122           11.52573
        10.85000           13.82698           12.82431
        10.86000           14.04401           14.13878
        10.87000           14.28371           15.47053
        10.88000           14.54764           16.82108
        10.89000           14.83762           18.19195
        10.90000           15.15570           19.58469
        10.91000           15.50421           21.00099
        10.92000           15.88583           22.44255
        10.93000           16.30359           23.91113
        10.94000           16.76094           25.40854
        10.95000           17.26183           26.93660
        10.96000           17.81073           28.49721
        10.97000           18.41279           30.09217
        10.98000           19.07387           31.72330
        10.99000           19.80072           33.39222
        11.00000           20.60106           35.10043
        11.01000           21.48378           36.84911
        11.02000           22.45908           38.63901
        11.03000           23.53875           40.47015
        11.04000           24.73634           42.34178
        11.05000           26.06746           44.25185
        11.06000           27.55001           46.19651
        11.07000           29.20458           48.16966
        11.08000           31.05453           50.16181
        11.09000           33.12634           52.15916
        11.10000           35.44955           54.14230
        11.11000           38.05649           56.08376
        11.12000           40.98162           57.94636
        11.13000           44.25984           59.67984
        11.14000           47.92379           61.21776
        11.15000           51.99927           62.47408
        11.16000           56.49846           63.34015
        11.17000           61.40828           63.68363
        11.18000           66.67924           63.35113
        11.19000           72.20818           62.17717
        11.20000           77.82360           60.00305
        11.21000           83.27733           56.70660
        11.22000           88.25052           52.24147
        11.23000           92.38286           46.67700
        11.24000           95.32561           40.22332
        11.25000           96.80942           33.22631
        11.26000           96.70526           26.12391
        11.27000           95.05513           19.37403
        11.28000           92.06039           13.37624
        11.29000           88.03312           8.414136
        11.30000           83.33132           4.631999
        11.31000           78.29824           2.045449
        11.32000           73.22195           0.573865
        11.33000           68.31757           0.079410
        11.34000           63.72776           0.401430
        11.35000           59.53394           1.380997
        11.36000           55.77160           2.875091
        11.37000           52.44460           4.762945
        11.38000           49.53730           6.947033
        11.39000           47.02327           9.351098
        11.40000           44.87127           11.91725
        11.41000           43.04913           14.60247
        11.42000           41.52601           17.37565
        11.43000           40.27375           20.21485
        11.44000           39.26730           23.10524
        11.45000           38.48500           26.03734
        11.46000           37.90848           29.00582
        11.47000           37.52251           32.00840
        11.48000           37.31477           35.04507
        11.49000           37.27562           38.11779
        11.50000           37.39794           41.22964
        11.51000           37.67690           44.38488
        11.52000           38.10981           47.58891
        11.53000           38.69606           50.84687
        11.54000           39.43704           54.16529
        11.55000           40.33617           57.55092
        11.56000           41.39881           61.01082
        11.57000           42.63251           64.55232
        11.58000           44.04693           68.18318
        11.59000           45.65413           71.91108
        11.60000           47.46874           75.74397
        11.61000           49.50824           79.68973
        11.62000           51.79332           83.75613
        11.63000           54.34829           87.95065
        11.64000           57.20153           92.28008
        11.65000           60.38618           96.75031
        11.66000           63.94075           101.3659
        11.67000           67.90997           106.1291
        11.68000           72.34573           111.0393
        11.69000           77.30819           116.0918
        11.70000           82.86681           121.2762
        11.71000           89.10187           126.5739
        11.72000           96.10568           131.9555
        11.73000           103.9837           137.3773
        11.74000           112.8554           142.7753
        11.75000           122.8550           148.0595
        11.76000           134.1297           153.1047
        11.77000           146.8372           157.7399
        11.78000           161.1383           161.7350
        11.79000           177.1855           164.7855
        11.80000           195.1015           166.4961
        11.81000           214.9483           166.3651
        11.82000           236.6798           163.7784
        11.83000           260.0795           158.0167
        11.84000           284.6839           148.2947
        11.85000           309.7066           133.8438
        11.86000           333.9870           114.0536
        11.87000           356.0091           88.66332
        11.88000           374.0292           57.96898
        11.89000           386.3391           22.96507
        11.90000           391.6130          -14.65418
        11.91000           389.2412          -52.73050
        11.92000           379.4930          -89.01724
        11.93000           363.4425          -121.6013
        11.94000           342.6898          -149.1987
        11.95000           319.0026          -171.2464
        11.96000           294.0097          -187.8077
        11.97000           269.0203          -199.3800
        11.98000           244.9655          -206.6893
        11.99000           222.4280          -210.5275
        12.00000           201.7125          -211.6474
        12.01000           182.9243          -210.7073
        12.02000           166.0377          -208.2536
        12.03000           150.9492          -204.7228
        12.04000           137.5152          -200.4544
        12.05000           125.5760          -195.7066
        12.06000           114.9714          -190.6735
        12.07000           105.5492          -185.4980
        12.08000           97.16930          -180.2845
        12.09000           89.70555          -175.1084
        12.10000           83.04556          -170.0226
        12.11000           77.09007          -165.0641
        12.12000           71.75150          -160.2574
        12.13000           66.95257          -155.6174
        12.14000           62.62526          -151.1523
        12.15000           58.70964          -146.8638
        12.16000           55.15351          -142.7487
        12.17000           51.91211          -138.8005
        12.18000           48.94781          -135.0102
        12.19000           46.22960          -131.3677
        12.20000           43.73209          -127.8631
        12.21000           41.43425          -124.4876
        12.22000           39.31833          -121.2337
        12.23000           37.36877          -118.0954
        12.24000           35.57156          -115.0669
        12.25000           33.91386          -112.1435
        12.26000           32.38374          -109.3202
        12.27000           30.97067          -106.5931
        12.28000           29.66458          -103.9575
        12.29000           28.45652          -101.4090
        12.30000           27.33830          -98.94319
        12.31000           26.30265          -96.55581
        12.32000           25.34300          -94.24261
        12.33000           24.45349          -91.99966
        12.34000           23.62886          -89.82282
        12.35000           22.86453          -87.70841
        12.36000           22.15633          -85.65270
        12.37000           21.50062          -83.65225
        12.38000           20.89421          -81.70361
        12.39000           20.33430          -79.80360
        12.40000           19.81847          -77.94915
        12.41000           19.34462          -76.13728
        12.42000           18.91102          -74.36515
        12.43000           18.51623          -72.63004
        12.44000           18.15911          -70.92925
        12.45000           17.83886          -69.26039
        12.46000           17.55493          -67.62097
        12.47000           17.30711          -66.00869
        12.48000           17.09550          -64.42125
        12.49000           16.92054          -62.85663
        12.50000           16.78303          -61.31273
        12.51000           16.68416          -59.78765
        12.52000           16.62554          -58.27968
        12.53000           16.60928          -56.78721
        12.54000           16.63801          -55.30885
        12.55000           16.71495          -53.84351
        12.56000           16.84401          -52.39054
        12.57000           17.02988          -50.94961
        12.58000           17.27809          -49.52122
        12.59000           17.59512          -48.10657
        12.60000           17.98853          -46.70810
        12.61000           18.46698          -45.32977
        12.62000           19.04034          -43.97738
        12.63000           19.71939          -42.65982
        12.64000           20.51592          -41.38907
        12.65000           21.44201          -40.18178
        12.66000           22.50921          -39.06017
        12.67000           23.72701          -38.05352
        12.68000           25.10045          -37.19912
        12.69000           26.62670          -36.54302
        12.70000           28.29020          -36.13960
        12.71000           30.05696          -36.04868
        12.72000           31.86855          -36.32963
        12.73000           33.63785          -37.03083
        12.74000           35.24981          -38.17513
        12.75000           36.57049          -39.74382
        12.76000           37.46637          -41.66459
        12.77000           37.83106          -43.81109
        12.78000           37.61128          -46.01820
        12.79000           36.82135          -48.11110
        12.80000           35.53904          -49.93802
        12.81000           33.88524          -51.39427
        12.82000           31.99634          -52.43090
        12.83000           29.99987          -53.04848
        12.84000           27.99946          -53.28261
        12.85000           26.06970          -53.18798
        12.86000           24.25786          -52.82532
        12.87000           22.58918          -52.25291
        12.88000           21.07294          -51.52206
        12.89000           19.70785          -50.67543
        12.90000           18.48633          -49.74712
        12.91000           17.39746          -48.76358
        12.92000           16.42896          -47.74499
        12.93000           15.56845          -46.70631
        12.94000           14.80412          -45.65848
        12.95000           14.12511          -44.60938
        12.96000           13.52165          -43.56458
        12.97000           12.98515          -42.52783
        12.98000           12.50803          -41.50158
        12.99000           12.08368          -40.48726
        13.00000           11.70652          -39.48579
        13.01000           11.37162          -38.49732
        13.02000           11.07481          -37.52172
        13.03000           10.81252          -36.55854
        13.04000           10.58173          -35.60723
        13.05000           10.37988          -34.66698
        13.06000           10.20485          -33.73698
        13.07000           10.05487          -32.81628
        13.08000           9.928522          -31.90396
        13.09000           9.824689          -30.99902
        13.10000           9.742537          -30.10045
        13.11000           9.681497          -29.20727
        13.12000           9.641251          -28.31847
        13.13000           9.621737          -27.43309
        13.14000           9.623145          -26.55017
        13.15000           9.645913          -25.66875
        13.16000           9.690762          -24.78797
        13.17000           9.758676          -23.90695
        13.18000           9.850970          -23.02494
        13.19000           9.969293          -22.14128
        13.20000           10.11566          -21.25540
        13.21000           10.29254          -20.36699
        13.22000           10.50285          -19.47592
        13.23000           10.75002          -18.58242
        13.24000           11.03814          -17.68720
        13.25000           11.37190          -16.79158
        13.26000           11.75672          -15.89768
        13.27000           12.19878          -15.00878
        13.28000           12.70497          -14.12960
        13.29000           13.28287          -13.26686
        13.30000           13.94044          -12.42974
        13.31000           14.68568          -11.63074
        13.32000           15.52585          -10.88639
        13.33000           16.46618          -10.21804
        13.34000           17.50812          -9.652591
        13.35000           18.64669          -9.222474
        13.36000           19.86675          -8.964987
        13.37000           21.13952          -8.919285
        13.38000           22.41888          -9.121337
        13.39000           23.63976          -9.595744
        13.40000           24.72113          -10.34550
        13.41000           25.57497          -11.34229
        13.42000           26.12159          -12.52180
        13.43000           26.30746          -13.78812
        13.44000           26.11939          -15.02851
        13.45000           25.58830          -16.13438
        13.46000           24.78098          -17.02060
        13.47000           23.78380          -17.63663
        13.48000           22.68510          -17.96704
        13.49000           21.56213          -18.02444
        13.50000           20.47458          -17.83906
        13.51000           19.46361          -17.44921
        13.52000           18.55449          -16.89431
        13.53000           17.76036          -16.21063
        13.54000           17.08617          -15.42956
        13.55000           16.53177          -14.57722
        13.56000           16.09435          -13.67495
        13.57000           15.77001          -12.74032
        13.58000           15.55469          -11.78806
        13.59000           15.44483          -10.83123
        13.60000           15.43737          -9.882208
        13.61000           15.52965          -8.953649
        13.62000           15.71883          -8.059254
        13.63000           16.00091          -7.214861
        13.64000           16.36959          -6.438037
        13.65000           16.81413          -5.748948
        13.66000           17.31772          -5.168272
        13.67000           17.85491          -4.715761
        13.68000           18.39110          -4.405582
        13.69000           18.88280          -4.241687
        13.70000           19.28228          -4.212206
        13.71000           19.54441          -4.286503
        13.72000           19.63650          -4.416404
        13.73000           19.54598          -4.542968
        13.74000           19.28373          -4.607230
        13.75000           18.88094          -4.560768
        13.76000           18.38085          -4.372602
        13.77000           17.82974          -4.030499
        13.78000           17.26889          -3.537662
        13.79000           16.73116          -2.907811
        13.80000           16.23935          -2.159351
        13.81000           15.80787          -1.312166
        13.82000           15.44415          -0.384176
        13.83000           15.15122           0.608750
        13.84000           14.92893           1.654353
        13.85000           14.77572           2.742630
        13.86000           14.68924           3.866725
        13.87000           14.66717           5.021143
        13.88000           14.70749           6.202750
        13.89000           14.80876           7.408967
        13.90000           14.97031           8.638912
        13.91000           15.19228           9.891822
        13.92000           15.47562           11.16742
        13.93000           15.82239           12.46634
        13.94000           16.23544           13.78852
        13.95000           16.71896           15.13470
        13.96000           17.27801           16.50457
        13.97000           17.91927           17.89829
        13.98000           18.65040           19.31449
        13.99000           19.48109           20.75177
        14.00000           20.42217           22.20648
        14.01000           21.48688           23.67408
        14.02000           22.68974           25.14659
        14.03000           24.04795           26.61362
        14.04000           25.57966           28.05946
        14.05000           27.30537           29.46343
        14.06000           29.24506           30.79643
        14.07000           31.41882           32.02076
        14.08000           33.84180           33.08630
        14.09000           36.52285           33.93012
        14.10000           39.45551           34.47434
        14.11000           42.61341           34.62803
        14.12000           45.93680           34.29163
        14.13000           49.32678           33.36760
        14.14000           52.63461           31.77891
        14.15000           55.66815           29.49235
        14.16000           58.20420           26.54696
        14.17000           60.02541           23.06969
        14.18000           60.96206           19.27803
        14.19000           60.93616           15.44787
        14.20000           59.98182           11.86899
        14.21000           58.23604           8.786844
        14.22000           55.90434           6.368907
        14.23000           53.21299           4.688941
        14.24000           50.37270           3.741789
        14.25000           47.55180           3.465806
        14.26000           44.87229           3.770187
        14.27000           42.40995           4.555591
        14.28000           40.20639           5.727616
        14.29000           38.27747           7.203588
        14.30000           36.62154           8.916093
        14.31000           35.22826           10.81086
        14.32000           34.08134           12.84745
        14.33000           33.16347           14.99462
        14.34000           32.45689           17.23103
        14.35000           31.94572           19.54058
        14.36000           31.61560           21.91384
        14.37000           31.45466           24.34385
        14.38000           31.45320           26.82825
        14.39000           31.60379           29.36544
        14.40000           31.90129           31.95718
        14.41000           32.34248           34.60505
        14.42000           32.92643           37.31329
        14.43000           33.65384           40.08533
        14.44000           34.52786           42.92704
        14.45000           35.55305           45.84297
        14.46000           36.73663           48.84000
        14.47000           38.08727           51.92337
        14.48000           39.61674           55.10052
        14.49000           41.33839           58.37695
        14.50000           43.26937           61.76046
        14.51000           45.42874           65.25618
        14.52000           47.84035           68.87135
        14.53000           50.53054           72.61004
        14.54000           53.53179           76.47784
        14.55000           56.87998           80.47621
        14.56000           60.61895           84.60693
        14.57000           64.79715           88.86581
        14.58000           69.47343           93.24719
        14.59000           74.71271           97.73626
        14.60000           80.59319           102.3126
        14.61000           87.20065           106.9416
        14.62000           94.63714           111.5761
        14.63000           103.0140           116.1458
        14.64000           112.4542           120.5531
        14.65000           123.0957           124.6662
        14.66000           135.0756           128.3036
        14.67000           148.5353           131.2262
        14.68000           163.5900           133.1190
        14.69000           180.3227           133.5802
        14.70000           198.7286           132.1102
        14.71000           218.6874           128.1121
        14.72000           239.8766           120.9167
        14.73000           261.7287           109.8334
        14.74000           283.3477           94.26341
        14.75000           303.5254           73.83834
        14.76000           320.7867           48.62186
        14.77000           333.6001           19.23939
        14.78000           340.6430          -13.03934
        14.79000           341.1232          -46.45952
        14.80000           334.9829          -79.03300
        14.81000           322.9136          -108.9517
        14.82000           306.1783          -134.8584
        14.83000           286.2953          -156.0343
        14.84000           264.7643          -172.3375
        14.85000           242.8382          -184.0856
        14.86000           221.4622          -191.8521
        14.87000           201.2483          -196.3224
        14.88000           182.5533          -198.1731
        14.89000           165.5217          -198.0143
        14.90000           150.1737          -196.3609
        14.91000           136.4356          -193.6290
        14.92000           124.1967          -190.1463
        14.93000           113.3171          -186.1626
        14.94000           103.6594          -181.8678
        14.95000           95.08441          -177.4010
        14.96000           87.46849          -172.8662
        14.97000           80.69450          -168.3356
        14.98000           74.66259          -163.8631
        14.99000           69.28074          -159.4838
        15.00000           64.47112          -155.2226
        15.01000           60.16552          -151.0962
        15.02000           56.30251          -147.1125
        15.03000           52.83089          -143.2779
        15.04000           49.70321          -139.5927
        15.05000           46.87948          -136.0570
        15.06000           44.32222          -132.6663
        15.07000           41.99978          -129.4156
        15.08000           39.88296          -126.2961
        15.09000           37.94842          -123.2988
        15.10000           36.17595          -120.4119
        15.11000           34.55103          -117.6254
        15.12000           33.06182          -114.9286
        15.13000           31.70034          -112.3141
        15.14000           30.45955          -109.7741
        15.15000           29.33441          -107.3046
        15.16000           28.31977          -104.9004
        15.17000           27.41165          -102.5587
        15.18000           26.60603          -100.2757
        15.19000           25.89999          -98.04898
        15.20000           25.29092          -95.87489
        15.21000           24.77750          -93.75151
        15.22000           24.35905          -91.67561
        15.23000           24.03626          -89.64567
        15.24000           23.81080          -87.65938
        15.25000           23.68576          -85.71648
        15.26000           23.66547          -83.81639
        15.27000           23.75576          -81.96123
        15.28000           23.96397          -80.15340
        15.29000           24.29874          -78.39918
        15.30000           24.77027          -76.70652
        15.31000           25.38951          -75.08857
        15.32000           26.16817          -73.56247
        15.33000           27.11681          -72.15276
        15.34000           28.24410          -70.89086
        15.35000           29.55281          -69.81780
        15.36000           31.03721          -68.98342
        15.37000           32.67646          -68.44653
        15.38000           34.42866          -68.27074
        15.39000           36.22569          -68.51721
        15.40000           37.96754          -69.23258
        15.41000           39.52682          -70.43311
        15.42000           40.75855          -72.08701
        15.43000           41.52472          -74.10514
        15.44000           41.72191          -76.34177
        15.45000           41.30828          -78.61690
        15.46000           40.31501          -80.74644
        15.47000           38.83729          -82.57902
        15.48000           37.01121          -84.01592
        15.49000           34.98251          -85.01923
        15.50000           32.88432          -85.60100
        15.51000           30.82093          -85.80846
        15.52000           28.86618          -85.70670
        15.53000           27.06343          -85.36611
        15.54000           25.43342          -84.85426
        15.55000           23.97755          -84.23097
        15.56000           22.68499          -83.54662
        15.57000           21.53451          -82.84057
        15.58000           20.49956          -82.14104
        15.59000           19.55015          -81.46372
        15.60000           18.65802          -80.81313
        15.61000           17.79935          -80.18317
        15.62000           16.95904          -79.56145
        15.63000           16.13074          -78.93312
        15.64000           15.31669          -78.28571
        15.65000           14.52381          -77.61125
        15.66000           13.76129          -76.90778
        15.67000           13.03697          -76.17759
        15.68000           12.35678          -75.42620
        15.69000           11.72349          -74.66019
        15.70000           11.13784          -73.88657
        15.71000           10.59843          -73.11115
        15.72000           10.10301          -72.33921
        15.73000           9.648390          -71.57451
        15.74000           9.231335          -70.82017
        15.75000           8.848566          -70.07840
        15.76000           8.496748          -69.35047
        15.77000           8.172992          -68.63757
        15.78000           7.874458          -67.93993
        15.79000           7.598761          -67.25802
        15.80000           7.343596          -66.59154
        15.81000           7.107081          -65.94054
        15.82000           6.887408          -65.30441
        15.83000           6.683121          -64.68304
        15.84000           6.492815          -64.07568
        15.85000           6.315380          -63.48209
        15.86000           6.149738          -62.90150
        15.87000           5.995061          -62.33364
        15.88000           5.850527          -61.77777
        15.89000           5.715528          -61.23360
        15.90000           5.589462          -60.70044
        15.91000           5.471901          -60.17802
        15.92000           5.362429          -59.66569
        15.93000           5.260775          -59.16323
        15.94000           5.166692          -58.67010
        15.95000           5.080063          -58.18610
        15.96000           5.000792          -57.71077
        15.97000           4.928916          -57.24403
        15.98000           4.864501          -56.78556
        15.99000           4.807733          -56.33542
        16.00000           4.758834          -55.89350
        16.01000           4.718135          -55.46005
        16.02000           4.685990          -55.03532
        16.03000           4.662805          -54.62002
        16.04000           4.648952          -54.21488
        16.05000           4.644723          -53.82114
        16.06000           4.650197          -53.44030
        16.07000           4.665076          -53.07448
        16.08000           4.688471          -52.72589
        16.09000           4.718613          -52.39727
        16.10000           4.752619          -52.09105
        16.11000           4.786289          -51.80923
        16.12000           4.814174          -51.55272
        16.13000           4.830049          -51.32026
        16.14000           4.827762          -51.10829
        16.15000           4.802471          -50.91080
        16.16000           4.751796          -50.72004
        16.17000           4.676422          -50.52787
        16.18000           4.579967          -50.32732
        16.19000           4.467943          -50.11350
        16.20000           4.346620          -49.88414
        16.21000           4.221761          -49.63926
        16.22000           4.098070          -49.38049
        16.23000           3.978786          -49.11027
        16.24000           3.865934          -48.83137
        16.25000           3.760436          -48.54627
        16.26000           3.662575          -48.25718
        16.27000           3.572147          -47.96567
        16.28000           3.488814          -47.67305
        16.29000           3.412122          -47.38020
        16.30000           3.341667          -47.08791
        16.31000           3.277012          -46.79657
        16.32000           3.217777          -46.50671
        16.33000           3.163553          -46.21853
        16.34000           3.113990          -45.93229
        16.35000           3.068741          -45.64799
        16.36000           3.027547          -45.36575
        16.37000           2.990186          -45.08543
        16.38000           2.956524          -44.80705
        16.39000           2.926459          -44.53045
        16.40000           2.899953          -44.25563
        16.41000           2.876974          -43.98244
        16.42000           2.857538          -43.71087
        16.43000           2.841675          -43.44075
        16.44000           2.829452          -43.17206
        16.45000           2.820967          -42.90459
        16.46000           2.816355          -42.63832
        16.47000           2.815804          -42.37315
        16.48000           2.819546          -42.10889
        16.49000           2.827874          -41.84552
        16.50000           2.841149          -41.58286
        16.51000           2.859801          -41.32089
        16.52000           2.884351          -41.05955
        16.53000           2.915402          -40.79890
        16.54000           2.953684          -40.53892
        16.55000           3.000024          -40.27989
        16.56000           3.055406          -40.02201
        16.57000           3.120929          -39.76583
        16.58000           3.197880          -39.51192
        16.59000           3.287652          -39.26137
        16.60000           3.391824          -39.01546
        16.61000           3.512001          -38.77618
        16.62000           3.649863          -38.54597
        16.63000           3.806862          -38.32833
        16.64000           3.984141          -38.12746
        16.65000           4.181975          -37.94896
        16.66000           4.399448          -37.79933
        16.67000           4.633524          -37.68620
        16.68000           4.878529          -37.61749
        16.69000           5.125157          -37.60054
        16.70000           5.360500          -37.64037
        16.71000           5.568318          -37.73769
        16.72000           5.731163          -37.88701
        16.73000           5.833207          -38.07561
        16.74000           5.864001          -38.28470
        16.75000           5.821111          -38.49223
        16.76000           5.710808          -38.67731
        16.77000           5.546379          -38.82390
        16.78000           5.344580          -38.92311
        16.79000           5.122234          -38.97307
        16.80000           4.893269          -38.97752
        16.81000           4.667661          -38.94334
        16.82000           4.451019          -38.87848
        16.83000           4.245556          -38.79025
        16.84000           4.051136          -38.68435
        16.85000           3.866418          -38.56437
        16.86000           3.690153          -38.43233
        16.87000           3.521586          -38.28903
        16.88000           3.360855          -38.13500
        16.89000           3.208560          -37.97082
        16.90000           3.065610          -37.79760
        16.91000           2.932679          -37.61670
        16.92000           2.810203          -37.42977
        16.93000           2.698160          -37.23843
        16.94000           2.596275          -37.04419
        16.95000           2.503968          -36.84832
        16.96000           2.420586          -36.65191
        16.97000           2.345353          -36.45571
        16.98000           2.277542          -36.26040
        16.99000           2.216415          -36.06635
        17.00000           2.161328          -35.87387
        17.01000           2.111664          -35.68314
        17.02000           2.066906          -35.49429
        17.03000           2.026577          -35.30730
        17.04000           1.990282          -35.12221
        17.05000           1.957664          -34.93897
        17.06000           1.928439          -34.75752
        17.07000           1.902349          -34.57777
        17.08000           1.879197          -34.39965
        17.09000           1.858810          -34.22302
        17.10000           1.841062          -34.04782
        17.11000           1.825851          -33.87392
        17.12000           1.813115          -33.70123
        17.13000           1.802816          -33.52960
        17.14000           1.794948          -33.35900
        17.15000           1.789537          -33.18926
        17.16000           1.786635          -33.02034
        17.17000           1.786329          -32.85210
        17.18000           1.788739          -32.68453
        17.19000           1.794017          -32.51754
        17.20000           1.802357          -32.35108
        17.21000           1.813985          -32.18520
        17.22000           1.829177          -32.01988
        17.23000           1.848239          -31.85524
        17.24000           1.871523          -31.69139
        17.25000           1.899403          -31.52859
        17.26000           1.932287          -31.36713
        17.27000           1.970562          -31.20749
        17.28000           2.014613          -31.05018
        17.29000           2.064741          -30.89597
        17.30000           2.121174          -30.74561
        17.31000           2.183974          -30.60014
        17.32000           2.253063          -30.46056
        17.33000           2.328097          -30.32803
        17.34000           2.408508          -30.20369
        17.35000           2.493346          -30.08866
        17.36000           2.581368          -29.98379
        17.37000           2.671014          -29.88958
        17.38000           2.760761          -29.80584
        17.39000           2.849374          -29.73199
        17.40000           2.936358          -29.66703
        17.41000           3.021962          -29.61029
        17.42000           3.107050          -29.56186
        17.43000           3.192433          -29.52294
        17.44000           3.278291          -29.49582
        17.45000           3.363446          -29.48355
        17.46000           3.445057          -29.48922
        17.47000           3.518344          -29.51523
        17.48000           3.576901          -29.56227
        17.49000           3.613312          -29.62837
        17.50000           3.620531          -29.70836
        17.51000           3.593519          -29.79389
        17.52000           3.530756          -29.87478
        17.53000           3.434893          -29.94077
        17.54000           3.312145          -29.98365
        17.55000           3.170922          -29.99836
        17.56000           3.019948          -29.98334
        17.57000           2.867015          -29.93994
        17.58000           2.718169          -29.87134
        17.59000           2.577467          -29.78161
        17.60000           2.447363          -29.67499
        17.61000           2.328916          -29.55530
        17.62000           2.222342          -29.42590
        17.63000           2.127210          -29.28946
        17.64000           2.042822          -29.14816
        17.65000           1.968277          -29.00357
        17.66000           1.902675          -28.85697
        17.67000           1.845106          -28.70921
        17.68000           1.794762          -28.56095
        17.69000           1.750885          -28.41261
        17.70000           1.712831          -28.26454
        17.71000           1.680022          -28.11688
        17.72000           1.651984          -27.96977
        17.73000           1.628297          -27.82319
        17.74000           1.608629          -27.67724
        17.75000           1.592697          -27.53181
        17.76000           1.580287          -27.38692
        17.77000           1.571225          -27.24246
        17.78000           1.565394          -27.09838
        17.79000           1.562714          -26.95461
        17.80000           1.563146          -26.81113
        17.81000           1.566687          -26.66782
        17.82000           1.573363          -26.52472
        17.83000           1.583223          -26.38178
        17.84000           1.596327          -26.23906
        17.85000           1.612740          -26.09659
        17.86000           1.632499          -25.95452
        17.87000           1.655607          -25.81293
        17.88000           1.681987          -25.67201
        17.89000           1.711483          -25.53181
        17.90000           1.743829          -25.39242
        17.91000           1.778715          -25.25360
        17.92000           1.815820          -25.11507
        17.93000           1.854977          -24.97612
        17.94000           1.896271          -24.83596
        17.95000           1.940149          -24.69370
        17.96000           1.987480          -24.54842
        17.97000           2.039433          -24.39958
        17.98000           2.097448          -24.24676
        17.99000           2.163045          -24.08999
        18.00000           2.237849          -23.92949
        18.01000           2.323468          -23.76576
        18.02000           2.421621          -23.59948
        18.03000           2.534052          -23.43161
        18.04000           2.662722          -23.26329
        18.05000           2.809666          -23.09613
        18.06000           2.977193          -22.93214
        18.07000           3.167648          -22.77405
        18.08000           3.383552          -22.62540
        18.09000           3.627179          -22.49090
        18.10000           3.900532          -22.37657
        18.11000           4.204557          -22.29008
        18.12000           4.538793          -22.24082
        18.13000           4.900023          -22.23984
        18.14000           5.281538          -22.29927
        18.15000           5.671469          -22.43111
        18.16000           6.052436          -22.64519
        18.17000           6.401206          -22.94605
        18.18000           6.690997          -23.33002
        18.19000           6.894954          -23.78239
        18.20000           6.991891          -24.27790
        18.21000           6.971250          -24.78320
        18.22000           6.836109          -25.26331
        18.23000           6.602359          -25.68771
        18.24000           6.294417          -26.03556
        18.25000           5.939960          -26.29710
        18.26000           5.564675          -26.47260
        18.27000           5.189665          -26.56933
        18.28000           4.829973          -26.59839
        18.29000           4.495380          -26.57212
        18.30000           4.191241          -26.50239
        18.31000           3.919602          -26.39965
        18.32000           3.680613          -26.27274
        18.33000           3.473022          -26.12878
        18.34000           3.295082          -25.97354
        18.35000           3.144648          -25.81152
        18.36000           3.019645          -25.64649
        18.37000           2.917962          -25.48142
        18.38000           2.837610          -25.31906
        18.39000           2.776537          -25.16170
        18.40000           2.732612          -25.01160
        18.41000           2.703402          -24.87070
        18.42000           2.686110          -24.74067
        18.43000           2.677516          -24.62256
        18.44000           2.674136          -24.51659
        18.45000           2.672563          -24.42181
        18.46000           2.670024          -24.33620
        18.47000           2.664924          -24.25690
        18.48000           2.657195          -24.18093
        18.49000           2.648197          -24.10590
        18.50000           2.640224          -24.03076
        18.51000           2.635747          -23.95598
        18.52000           2.636652          -23.88354
        18.53000           2.643613          -23.81641
        18.54000           2.655697          -23.75802
        18.55000           2.670230          -23.71146
        18.56000           2.682937          -23.67877
        18.57000           2.688493          -23.66002
        18.58000           2.681462          -23.65298
        18.59000           2.657470          -23.65305
        18.60000           2.614324          -23.65400
        18.61000           2.552521          -23.64922
        18.62000           2.475107          -23.63302
        18.63000           2.386736          -23.60156
        18.64000           2.292657          -23.55323
        18.65000           2.197659          -23.48825
        18.66000           2.105618          -23.40819
        18.67000           2.019264          -23.31531
        18.68000           1.940236          -23.21199
        18.69000           1.869398          -23.10054
        18.70000           1.806972          -22.98289
        18.71000           1.752849          -22.86070
        18.72000           1.706665          -22.73522
        18.73000           1.667987          -22.60744
        18.74000           1.636328          -22.47805
        18.75000           1.611239          -22.34762
        18.76000           1.592293          -22.21647
        18.77000           1.579123          -22.08491
        18.78000           1.571402          -21.95307
        18.79000           1.568854          -21.82105
        18.80000           1.571243          -21.68885
        18.81000           1.578381          -21.55644
        18.82000           1.590146          -21.42363
        18.83000           1.606502          -21.29027
        18.84000           1.627537          -21.15600
        18.85000           1.653479          -21.02059
        18.86000           1.684721          -20.88369
        18.87000           1.721793          -20.74509
        18.88000           1.765376          -20.60459
        18.89000           1.816237          -20.46215
        18.90000           1.875284          -20.31774
        18.91000           1.943504          -20.17152
        18.92000           2.022055          -20.02367
        18.93000           2.112196          -19.87459
        18.94000           2.215429          -19.72478
        18.95000           2.333390          -19.57504
        18.96000           2.468012          -19.42645
        18.97000           2.621370          -19.28055
        18.98000           2.795838          -19.13942
        18.99000           2.993831          -19.00597
        19.00000           3.217911          -18.88398
        19.01000           3.470321          -18.77857
        19.02000           3.752915          -18.69625
        19.03000           4.066338          -18.64528
        19.04000           4.409343          -18.63572
        19.05000           4.777937          -18.67918
        19.06000           5.163756          -18.78812
        19.07000           5.553372          -18.97444
        19.08000           5.927148          -19.24688
        19.09000           6.260300          -19.60818
        19.10000           6.524879          -20.05151
        19.11000           6.694673          -20.55900
        19.12000           6.750535          -21.10199
        19.13000           6.685415          -21.64569
        19.14000           6.506260          -22.15493
        19.15000           6.232007          -22.60132
        19.16000           5.888977          -22.96658
        19.17000           5.504885          -23.24405
        19.18000           5.104773          -23.43622
        19.19000           4.708042          -23.55195
        19.20000           4.328395          -23.60301
        19.21000           3.973967          -23.60196
        19.22000           3.648969          -23.56040
        19.23000           3.354474          -23.48839
        19.24000           3.089867          -23.39425
        19.25000           2.853254          -23.28448
        19.26000           2.642358          -23.16425
        19.27000           2.454566          -23.03734
        19.28000           2.287413          -22.90667
        19.29000           2.138466          -22.77430
        19.30000           2.005598          -22.64182
        19.31000           1.886814          -22.51026
        19.32000           1.780428          -22.38044
        19.33000           1.684892          -22.25280
        19.34000           1.598913          -22.12770
        19.35000           1.521313          -22.00533
        19.36000           1.451120          -21.88581
        19.37000           1.387442          -21.76914
        19.38000           1.329549          -21.65533
        19.39000           1.276765          -21.54428
        19.40000           1.228533          -21.43596
        19.41000           1.184363          -21.33027
        19.42000           1.143805          -21.22708
        19.43000           1.106496          -21.12633
        19.44000           1.072090          -21.02786
        19.45000           1.040307          -20.93160
        19.46000           1.010878          -20.83743
        19.47000           0.983587          -20.74525
        19.48000           0.958223          -20.65495
        19.49000           0.934617          -20.56647
        19.50000           0.912602          -20.47966
        19.51000           0.892046          -20.39449
        19.52000           0.872816          -20.31085
        19.53000           0.854805          -20.22868
        19.54000           0.837907          -20.14788
        19.55000           0.822036          -20.06840
        19.56000           0.807107          -19.99018
        19.57000           0.793051          -19.91315
        19.58000           0.779798          -19.83725
        19.59000           0.767291          -19.76244
        19.60000           0.755472          -19.68865
        19.61000           0.744297          -19.61584
        19.62000           0.733717          -19.54396
        19.63000           0.723694          -19.47297
        19.64000           0.714188          -19.40283
        19.65000           0.705170          -19.33352
        19.66000           0.696605          -19.26495
        19.67000           0.688467          -19.19715
        19.68000           0.680729          -19.13003
        19.69000           0.673369          -19.06359
        19.70000           0.666364          -18.99781
        19.71000           0.659695          -18.93264
        19.72000           0.653343          -18.86805
        19.73000           0.647292          -18.80404
        19.74000           0.641526          -18.74055
        19.75000           0.636032          -18.67758
        19.76000           0.630797          -18.61511
        19.77000           0.625809          -18.55311
        19.78000           0.621057          -18.49156
        19.79000           0.616531          -18.43045
        19.80000           0.612224          -18.36975
        19.81000           0.608125          -18.30943
        19.82000           0.604229          -18.24950
        19.83000           0.600528          -18.18991
        19.84000           0.597017          -18.13068
        19.85000           0.593690          -18.07177
        19.86000           0.590543          -18.01317
        19.87000           0.587572          -17.95486
        19.88000           0.584775          -17.89684
        19.89000           0.582148          -17.83906
        19.90000           0.579689          -17.78156
        19.91000           0.577398          -17.72428
        19.92000           0.575273          -17.66722
        19.93000           0.573315          -17.61036
        19.94000           0.571525          -17.55371
        19.95000           0.569904          -17.49723
        19.96000           0.568455          -17.44092
        19.97000           0.567181          -17.38476
        19.98000           0.566087          -17.32874
        19.99000           0.565177          -17.27283
        20.00000           0.564460          -17.21705
# 
# 11/10/2023 at 10:04 yambo @ unimi-XPS-8930 [start]
# 11/10/2023 at 10:05                        [end]
#
# .-Input file  yambo.in
# | rim_cut                          # [R] Coulomb potential
# | optics                           # [R] Linear Response optical properties
# | dipoles                          # [R] Oscillator strenghts (or dipoles)
# | bse                              # [R][BSE] Bethe Salpeter Equation.
# | ElecTemp= 0.025861         eV    # Electronic Temperature
# | BoseTemp= 0.025861         eV    # Bosonic Temperature
# | DIP_Threads= 1                   # [OPENMP/X] Number of threads for dipoles
# | BS_nCPU_LinAlg_INV= 1            # [PARALLEL] CPUs for Linear Algebra (if -1 it is automatically set)
# | BS_nCPU_LinAlg_DIAGO= 1          # [PARALLEL] CPUs for Linear Algebra (if -1 it is automatically set)
# | X_Threads= 1                     # [OPENMP/X] Number of threads for response functions
# | K_Threads= 1                     # [OPENMP/BSK] Number of threads for response functions
# | RandQpts=0                       # [RIM] Number of random q-points in the BZ
# | RandGvec= 1                RL    # [RIM] Coulomb interaction RS components
# | CUTGeo= "ws xyz"                 # [CUT] Coulomb Cutoff geometry: box/cylinder/sphere/ws/slab X/Y/Z/XY..
# | % CUTBox
# |  0.000000 | 0.000000 | 0.000000 |        # [CUT] [au] Box sides
# | %
# | CUTRadius= 0.000000              # [CUT] [au] Sphere/Cylinder radius
# | CUTCylLen= 0.000000              # [CUT] [au] Cylinder length
# | CUTwsGvec= 0.700000              # [CUT] WS cutoff: number of G to be modified
# | BSKmod= "IP"                     # [BSE] IP/Hartree/HF/ALDA/SEX/BSfxc
# | BSEmod= "retarded"               # [BSE] resonant/retarded/coupling
# | Lkind= "Lbar"                    # [BSE,X] bar(default)/full
# | DipBandsALL                    # [DIP] Compute all bands range, not only valence and conduction
# | DipComputed= "R V P"             # [DIP] [default R P V; extra P2 Spin Orb]
# | DbGdQsize= 1.000000              # [X,DbGd][o/o] Percentual of the total DbGd transitions to be used
# | BSENGexx= 20395            RL    # [BSK] Exchange components
# | % BSEQptR
# |  1 | 1 |                             # [BSK] Transferred momenta range
# | %
# | % BSEBands
# |   1 | 20 |                           # [BSK] Bands range
# | %
# | % BEnRange
# |   0.00000 | 20.00000 |         eV    # [BSS] Energy range
# | %
# | % BDmRange
# |  0.100000 | 0.100000 |         eV    # [BSS] Damping range
# | %
# | BEnSteps= 2001                   # [BSS] Energy steps
# | % BLongDir
# |  0.100000E-4 |  0.00000    |  0.00000    # [BSS] [cc] Electric Field
# | %
# | BSEprop= "abs dichr jdos"        # [BSS] Can be any among abs/jdos/kerr/magn/dich/photolum/esrt
# | BSEdips= "none"                  # [BSS] Can be "trace/none" or "xy/xz/yz" to define off-diagonal rotation plane
