#                                                           
#                                                           
# Y88b    /   e           e    e      888~~\    ,88~-_      
#  Y88b  /   d8b         d8b  d8b     888   |  d888   \     
#   Y88b/   /Y88b       d888bdY88b    888 _/  88888    |    
#    Y8Y   /  Y88b     / Y88Y Y888b   888  \  88888    |    
#     Y   /____Y88b   /   YY   Y888b  888   |  Y888   /     
#    /   /      Y88b /          Y888b 888__/    `88_-~      
#                                                           
#                                                           
#       Version 4.1.0 Revision 13814 Hash e27d56e           
#                       MPI Build                           
#               http://www.yambo-code.org                   
#
# Polarizability ( -<<X>> ) [volume @ Q(1) [q->0 direction]0.5774E-5 0.5774E-5 0.5774E-5
#
#
# - Energies      are Teter 93(XC)
# - Wavefunctions are Teter 93(XC)
#
# - The Green`s function is Resonant -
# - Using the Length Gauge -
# - [r,Vnl] *is* included -
#
#   BSK|Identifier              :5416
#      |Dimension               :110
#      |Bands                   :14 - 34
#      |Exchange           [res]: yes
#      |Correlation        [res]: no
#      |Kernel`s coupling       : no
#      |Exchange           [cpl]: no
#      |Correlation        [cpl]: no
#      |W interaction is bare   : no
#      |ALDA kernel in R-space  : yes
#      |RL vectors    [exchange]:367
#      |E/h energy range    [ev]:-1.000000 - -1.000000
#      |Coupling range     [o/o]: 100.0000 -  100.0000
#
#  E/ev[1]    ALPHA-Im[2]ALPHA-Re[3]ALPHAo-Im[4ALPHAo-Re[5]
#
  3.000     0.1473E-1   60.38     0.5902E-1   102.2   
    3.0100     0.7747    60.4529     3.0616   102.5801
    3.0200     0.7925    60.1796     3.1807   101.5762
    3.0300     0.7976    60.1160     3.2321   101.4009
    3.0401     0.8020    60.1017     3.2777   101.4012
    3.0501     0.8062    60.1042     3.3211   101.4935
    3.0601     0.8103    60.1253     3.3635   101.6383
    3.0701     0.8143    60.1519     3.4054   101.8226
    3.0801     0.8183    60.1857     3.4475   102.0280
    3.0901     0.8224    60.2220     3.4898   102.2560
    3.1001     0.8263    60.2684     3.5323   102.5042
    3.1101     0.8303    60.3111     3.5752   102.7661
    3.1202     0.8344    60.3594     3.6189   103.0354
    3.1302     0.8384    60.4079     3.6629   103.3209
    3.1402     0.8424    60.4617     3.7076   103.6152
    3.1502     0.8465    60.5169     3.7528   103.9211
    3.1602     0.8506    60.5680     3.7991   104.2287
    3.1702     0.8547    60.6260     3.8458   104.5507
    3.1802     0.8589    60.6850     3.8934   104.8798
    3.1902     0.8631    60.7405     3.9418   105.2142
    3.2003     0.8673    60.8051     3.9910   105.5604
    3.2103     0.8715    60.8663     4.0410   105.9134
    3.2203     0.8758    60.9272     4.0921   106.2669
    3.2303     0.8800    60.9894     4.1440   106.6348
    3.2403     0.8843    61.0572     4.1969   107.0057
    3.2503     0.8887    61.1200     4.2507   107.3860
    3.2603     0.8931    61.1895     4.3057   107.7709
    3.2703     0.8975    61.2550     4.3616   108.1643
    3.2804     0.9019    61.3206     4.4188   108.5608
    3.2904     0.9064    61.3909     4.4770   108.9682
    3.3004     0.9109    61.4585     4.5364   109.3812
    3.3104     0.9155    61.5310     4.5969   109.8020
    3.3204     0.9201    61.5970     4.6589   110.2244
    3.3304     0.9247    61.6729     4.7218   110.6631
    3.3404     0.9294    61.7440     4.7862   111.1039
    3.3504     0.9340    61.8179     4.8519   111.5522
    3.3605     0.9388    61.8895     4.9191   112.0061
    3.3705     0.9435    61.9665     4.9877   112.4684
    3.3805     0.9484    62.0361     5.0579   112.9361
    3.3905     0.9532    62.1124     5.1295   113.4130
    3.4005     0.9581    62.1869     5.2026   113.8995
    3.4105     0.9630    62.2673     5.2772   114.3966
    3.4205     0.9680    62.3404     5.3537   114.8962
    3.4305     0.9730    62.4200     5.4320   115.4037
    3.4406     0.9781    62.4977     5.5119   115.9227
    3.4506     0.9832    62.5758     5.5940   116.4435
    3.4606     0.9883    62.6576     5.6775   116.9823
    3.4706     0.9935    62.7389     5.7633   117.5235
    3.4806     0.9987    62.8203     5.8509   118.0763
    3.4906     1.0040    62.9062     5.9406   118.6397
    3.5006     1.0093    62.9852     6.0328   119.2067
    3.5106     1.0147    63.0691     6.1270   119.7858
    3.5207     1.0201    63.1510     6.2235   120.3753
    3.5307     1.0255    63.2364     6.3225   120.9743
    3.5407     1.0310    63.3234     6.4238   121.5842
    3.5507     1.0366    63.4070     6.5279   122.2013
    3.5607     1.0422    63.4930     6.6346   122.8312
    3.5707     1.0479    63.5815     6.7439   123.4716
    3.5807     1.0536    63.6649     6.8565   124.1187
    3.5907     1.0593    63.7583     6.9713   124.7865
    3.6008     1.0651    63.8469     7.0895   125.4604
    3.6108     1.0710    63.9370     7.2109   126.1471
    3.6208     1.0769    64.0289     7.3353   126.8482
    3.6308     1.0829    64.1167     7.4635   127.5572
    3.6408     1.0889    64.2073     7.5950   128.2812
    3.6508     1.0950    64.3039     7.7302   129.0192
    3.6608     1.1011    64.3946     7.8691   129.7714
    3.6708     1.1073    64.4920     8.0120   130.5360
    3.6809     1.1136    64.5811     8.1591   131.3138
    3.6909     1.1199    64.6782     8.3105   132.1065
    3.7009     1.1263    64.7708     8.4662   132.9151
    3.7109     1.1327    64.8670     8.6269   133.7358
    3.7209     1.1392    64.9648     8.7918   134.5781
    3.7309     1.1458    65.0643     8.9619   135.4345
    3.7409     1.1524    65.1618     9.1373   136.3065
    3.7509     1.1590    65.2667     9.3175   137.2028
    3.7610     1.1658    65.3614     9.5045   138.1044
    3.7710     1.1726    65.4648     9.6966   139.0330
    3.7810     1.1795    65.5670     9.8949   139.9787
    3.7910     1.1864    65.6698    10.0998   140.9431
    3.8010     1.1935    65.7730    10.3112   141.9294
    3.8110     1.2006    65.8765    10.5301   142.9320
    3.8210     1.2077    65.9801    10.7557   143.9609
    3.8310     1.2149    66.0888    10.9893   145.0088
    3.8411     1.2223    66.1884    11.2311   146.0783
    3.8511     1.2296    66.3003    11.4809   147.1744
    3.8611     1.2371    66.4041    11.7395   148.2940
    3.8711     1.2446    66.5181    12.0072   149.4398
    3.8811     1.2522    66.6257    12.2846   150.6113
    3.8911     1.2600    66.7320    12.5727   151.8053
    3.9011     1.2677    66.8431    12.8712   153.0297
    3.9111     1.2756    66.9564    13.1805   154.2850
    3.9212     1.2835    67.0714    13.5018   155.5682
    3.9312     1.2915    67.1865    13.8351   156.8850
    3.9412     1.2996    67.2983    14.1826   158.2268
    3.9512     1.3078    67.4117    14.5432   159.6056
    3.9612     1.3161    67.5274    14.9184   161.0180
    3.9712     1.3245    67.6439    15.3090   162.4654
    3.9812     1.3329    67.7624    15.7151   163.9537
    3.9912     1.3415    67.8818    16.1391   165.4763
    4.0013     1.3501    68.0001    16.5806   167.0414
    4.0113     1.3588    68.1248    17.0413   168.6479
    4.0213     1.3677    68.2384    17.5229   170.2947
    4.0313     1.3766    68.3633    18.0257   171.9881
    4.0413     1.3857    68.4869    18.5510   173.7301
    4.0513     1.3948    68.6124    19.1011   175.5186
    4.0613     1.4040    68.7386    19.6766   177.3596
    4.0713     1.4134    68.8621    20.2807   179.2502
    4.0814     1.4229    68.9900    20.9135   181.1987
    4.0914     1.4324    69.1172    21.5781   183.2036
    4.1014     1.4422    69.2415    22.2769   185.2667
    4.1114     1.4519    69.3781    23.0101   187.3977
    4.1214     1.4618    69.5072    23.7832   189.5904
    4.1314     1.4718    69.6399    24.5977   191.8520
    4.1414     1.4819    69.7737    25.4563   194.1863
    4.1514     1.4922    69.9048    26.3644   196.5924
    4.1615     1.5026    70.0416    27.3229   199.0805
    4.1715     1.5131    70.1811    28.3384   201.6480
    4.1815     1.5237    70.3155    29.4145   204.3015
    4.1915     1.5345    70.4574    30.5565   207.0444
    4.2015     1.5454    70.5948    31.7705   209.8801
    4.2115     1.5564    70.7342    33.0628   212.8125
    4.2215     1.5676    70.8768    34.4402   215.8464
    4.2315     1.5790    71.0163    35.9108   218.9850
    4.2416     1.5904    71.1641    37.4828   222.2330
    4.2516     1.6020    71.3064    39.1669   225.5927
    4.2616     1.6137    71.4568    40.9727   229.0681
    4.2716     1.6256    71.6041    42.9126   232.6612
    4.2816     1.6377    71.7514    44.9988   236.3728
    4.2916     1.6499    71.9018    47.2434   240.2052
    4.3016     1.6623    72.0529    49.6592   244.1559
    4.3116     1.6748    72.2090    52.2571   248.2231
    4.3217     1.6876    72.3630    55.0482   252.4014
    4.3317     1.7005    72.5182    58.0376   256.6849
    4.3417     1.7136    72.6731    61.2283   261.0663
    4.3517     1.7269    72.8305    64.6179   265.5398
    4.3617     1.7403    72.9896    68.2001   270.1048
    4.3717     1.7540    73.1506    71.9671   274.7703
    4.3817     1.7679    73.3127    75.9119   279.5592
    4.3917     1.7819    73.4753    80.0357   284.5116
    4.4018     1.7961    73.6444    84.3492   289.6779
    4.4118     1.8107    73.8036    88.8877   295.1187
    4.4218     1.8254    73.9740    93.7046   300.8864
    4.4318     1.8403    74.1432    98.8792   307.0298
    4.4418     1.8554    74.3141   104.5066   313.5831
    4.4518     1.8706    74.4873   110.6910   320.5672
    4.4618     1.8862    74.6572   117.5411   327.9926
    4.4718     1.9018    74.8337   125.1685   335.8519
    4.4819     1.9176    75.0081   133.6906   344.1307
    4.4919     1.9336    75.1848   143.2336   352.8022
    4.5019     1.9497    75.3655   153.9396   361.8227
    4.5119     1.9660    75.5489   165.9654   371.1447
    4.5219     1.9825    75.7296   179.4877   380.6998
    4.5319     1.9992    75.9203   194.7196   390.3840
    4.5419     2.0163    76.1008   211.8770   400.0798
    4.5519     2.0335    76.2945   231.2313   409.5953
    4.5620     2.0511    76.4799   253.0515   418.6992
    4.5720     2.0689    76.6745   277.6560   427.0486
    4.5820     2.0870    76.8686   305.3507   434.2061
    4.5920     2.1055    77.0633   336.4250   439.5944
    4.6020     2.1242    77.2626   371.1257   442.4503
    4.6120     2.1434    77.4612   409.5817   441.8160
    4.6220     2.1628    77.6608   451.7109   436.5200
    4.6320     2.1825    77.8651   497.1338   425.1537
    4.6421     2.2026    78.0730   544.9817   406.2049
    4.6521     2.2231    78.2789   593.7602   378.2092
    4.6621     2.2438    78.4921   641.2897   339.8681
    4.6721     2.2650    78.6998   684.6556   290.7518
    4.6821     2.2866    78.9142   720.5104   231.2134
    4.6921     2.3084    79.1319   745.4879   163.1052
    4.7021     2.3308    79.3490   756.9892    89.6955
    4.7121     2.3534    79.5735   753.6189    14.9912
    4.7222     2.3767    79.7923   735.9594   -56.4382
    4.7322     2.4002    80.0194   705.7449  -121.0272
    4.7422     2.4242    80.2482   666.1539  -176.0649
    4.7522     2.4487    80.4737   620.6673  -220.3553
    4.7622     2.4736    80.7116   572.1761  -253.9667
    4.7722     2.4991    80.9432   523.7169  -277.7839
    4.7822     2.5250    81.1805   476.8133  -293.1786
    4.7922     2.5514    81.4243   432.7392  -301.6724
    4.8023     2.5786    81.6603   392.2974  -304.8151
    4.8123     2.6062    81.9079   355.4421  -303.7790
    4.8223     2.6343    82.1585   322.2953  -299.7021
    4.8323     2.6632    82.4070   292.7061  -293.4877
    4.8423     2.6926    82.6649   266.2848  -285.7184
    4.8523     2.7229    82.9149   242.8764  -277.0453
    4.8623     2.7537    83.1757   222.0163  -267.7080
    4.8723     2.7854    83.4382   203.4759  -258.0563
    4.8824     2.8179    83.7010   186.9958  -248.3193
    4.8924     2.8510    83.9749   172.2794  -238.5771
    4.9024     2.8853    84.2416   159.1627  -229.0126
    4.9124     2.9204    84.5178   147.4315  -219.6678
    4.9224     2.9566    84.7957   136.8853  -210.5338
    4.9324     2.9938    85.0747   127.4493  -201.7675
    4.9424     3.0321    85.3599   118.9101  -193.2250
    4.9524     3.0714    85.6476   111.2291  -185.0526
    4.9625     3.1120    85.9374   104.2680  -177.1647
    4.9725     3.1535    86.2313    97.9601  -169.5922
    4.9825     3.1962    86.5243    92.2347  -162.3319
    4.9925     3.2396    86.8228    87.0158  -155.3432
    5.0025     3.2836    87.1246    82.2557  -148.6315
    5.0125     3.3281    87.4272    77.9105  -142.1964
    5.0225     3.3725    87.7366    73.9255  -135.9882
    5.0325     3.4168    88.0459    70.2805  -130.0438
    5.0426     3.4608    88.3607    66.9299  -124.3090
    5.0526     3.5045    88.6800    63.8518  -118.7914
    5.0626     3.5484    88.9993    61.0293  -113.5076
    5.0726     3.5923    89.3332    58.4134  -108.3525
    5.0826     3.6371    89.6661    56.0095  -103.4009
   5.09262    3.68293   90.00456   53.79401  -98.62125
   5.10263    3.73012   90.35308   51.74472  -93.97618
   5.11264    3.77917   90.70321   49.85982  -89.50294
   5.12265    3.83018   91.06027   48.11841  -85.15697
   5.13267    3.88344   91.42039   46.51408  -80.94762
   5.14268    3.93896   91.78836   45.03527  -76.85780
   5.15269    3.99677   92.16738   43.66455  -72.83920
   5.16270    4.05745   92.54465   42.41401  -68.97120
   5.17272    4.12088   92.92702   41.26484  -65.19197
   5.18273    4.18702   93.31938   40.21016  -61.48922
   5.19274    4.25640   93.70942   39.25371  -57.89701
   5.20275    4.32858   94.11128   38.37878  -54.35058
   5.21277    4.40392   94.51521   37.59084  -50.88750
   5.22278    4.48234   94.92115   36.88644  -47.50148
   5.23279    4.56334   95.33505   36.25632  -44.15440
   5.24280    4.64680   95.74904   35.70740  -40.88722
   5.25282    4.73191   96.16656   35.23077  -37.66048
   5.26283    4.81765   96.59068   34.82755  -34.48426
   5.27284    4.90342   97.01198   34.49710  -31.35965
   5.28285    4.98755   97.44695   34.23338  -28.25975
   5.29287    5.07003   97.87942   34.04055  -25.20901
   5.30288    5.15003   98.32252   33.91444  -22.18873
   5.31289    5.22786   98.77735   33.85052  -19.17417
   5.32290    5.30482   99.23405   33.85995  -16.21492
   5.33292    5.38129   99.70992   33.93107  -13.23685
    5.3429     5.4591   100.1947    34.0747   -10.2699
    5.3529     5.5390   100.6953    34.2928    -7.2903
    5.3630     5.6224   101.2075    34.5933    -4.2963
    5.3730     5.7100   101.7293    34.9887    -1.3014
    5.3830     5.8024   102.2635    35.4833     1.7222
    5.3930     5.8999   102.8107    36.0896     4.7688
    5.4030     6.0031   103.3663    36.8188     7.8411
    5.4130     6.1119   103.9370    37.6817    10.9480
    5.4230     6.2268   104.5170    38.6937    14.0853
    5.4330     6.3480   105.1089    39.8714    17.2494
    5.4431     6.4755   105.7160    41.2269    20.4615
    5.4531     6.6102   106.3269    42.7913    23.6789
    5.4631     6.7517   106.9567    44.5754    26.9420
    5.4731     6.9007   107.5964    46.6117    30.2179
    5.4831     7.0577   108.2450    48.9302    33.4936
    5.4931     7.2224   108.9130    51.5556    36.7722
    5.5031     7.3960   109.5847    54.5310    40.0044
    5.5131     7.5777   110.2749    57.8824    43.1842
    5.5232     7.7682   110.9725    61.6481    46.2626
    5.5332     7.9671   111.6825    65.8631    49.1878
    5.5432     8.1735   112.4081    70.5412    51.9329
    5.5532     8.3872   113.1413    75.7331    54.3866
    5.5632     8.6070   113.8884    81.4380    56.5157
    5.5732     8.8318   114.6526    87.6805    58.2336
    5.5832     9.0617   115.4278    94.4937    59.4337
    5.5932     9.2961   116.2269   101.8807    60.0324
    5.6033     9.5363   117.0469   109.8769    59.8609
    5.6133     9.7844   117.8899   118.4702    58.7314
    5.6233    10.0424   118.7613   127.6011    56.3923
    5.6333    10.3139   119.6561   137.1216    52.5438
    5.6433    10.6008   120.5842   146.7468    46.8807
    5.6533    10.9065   121.5393   156.0399    39.1436
    5.6633    11.2336   122.5247   164.4281    29.1966
    5.6733    11.5843   123.5424   171.1893    17.1555
    5.6834    11.9618   124.5873   175.6953     3.3632
    5.6934    12.3682   125.6631   177.3583   -11.4847
    5.7034    12.8065   126.7708   175.9149   -26.5183
    5.7134    13.2808   127.9021   171.4985   -40.8500
    5.7234    13.7928   129.0696   164.4666   -53.6385
    5.7334    14.3477   130.2630   155.5054   -64.3703
    5.7434    14.9491   131.4858   145.3368   -72.8009
    5.7534    15.6021   132.7321   134.6229   -78.9310
    5.7635    16.3110   134.0025   123.9417   -82.9999
    5.7735    17.0815   135.2884   113.6585   -85.2735
    5.7835    17.9165   136.5917   104.0278   -86.0939
    5.7935    18.8219   137.8932    95.1883   -85.7934
    5.8035    19.7964   139.2006    87.1569   -84.5934
    5.8135    20.8429   140.4868    79.9649   -82.8192
    5.8235    21.9553   141.7521    73.5371   -80.5877
    5.8335    23.1264   142.9850    67.8175   -78.0627
    5.8436    24.3459   144.1747    62.7423   -75.3767
    5.8536    25.5991   145.3245    58.2298   -72.5845
    5.8636    26.8743   146.4335    54.2139   -69.7569
    5.8736    28.1607   147.5124    50.6292   -66.9292
    5.8836    29.4549   148.5665    47.4184   -64.1287
    5.8936    30.7562   149.6035    44.5334   -61.3815
    5.9036    32.0657   150.6246    41.9316   -58.7027
    5.9136    33.3796   151.6294    39.5711   -56.0750
    5.9237    34.6884   152.6121    37.4302   -53.5457
    5.9337    35.9696   153.5823    35.4650   -51.0216
    5.9437    37.2030   154.5428    33.6751   -48.6025
    5.9537    38.3629   155.5297    32.0326   -46.2219
    5.9637    39.4381   156.5855    30.5265   -43.8876
    5.9737    40.4376   157.7580    29.1511   -41.6257
    5.9837    41.3875   159.1040    27.8893   -39.3880
    5.9937    42.3354   160.6618    26.7377   -37.2054
    6.0038    43.3401   162.4526    25.6865   -35.0676
    6.0138    44.4599   164.4862    24.7274   -32.9689
    6.0238    45.7549   166.7459    23.8557   -30.9279
    6.0338    47.2691   169.2184    23.0619   -28.9232
    6.0438    49.0478   171.8692    22.3411   -26.9649
    6.0538    51.1196   174.6736    21.6898   -25.0664
    6.0638    53.5119   177.5971    21.0949   -23.1628
    6.0738    56.2437   180.6109    20.5628   -21.3389
    6.0839    59.3299   183.6859    20.0823   -19.5316
    6.0939    62.7806   186.8024    19.6526   -17.7605
    6.1039    66.6096   189.9423    19.2706   -16.0206
    6.1139    70.8335   193.1006    18.9342   -14.3124
    6.1239    75.4805   196.2787    18.6395   -12.6173
    6.1339    80.6067   199.4742    18.3879   -10.9608
    6.1439    86.2786   202.6825    18.1756    -9.3180
    6.1539    92.5986   205.8723    18.0045    -7.7177
    6.1640    99.6709   208.9831    17.8703    -6.1285
    6.1740   107.6195   211.9064    17.7731    -4.5618
    6.1840   116.5617   214.4829    17.7119    -3.0153
    6.1940   126.6045   216.4955    17.6841    -1.4771
  6.204      137.8      217.7      17.69     0.3591E-1
    6.2140   150.2734   217.6629    17.7308     1.5345
    6.2240   163.8755   216.0806    17.8037     3.0233
    6.2340   178.4699   212.4769    17.9130     4.4833
    6.2441   193.7076   206.3760    18.0571     5.9505
    6.2541   209.0533   197.3508    18.2396     7.4161
    6.2641   223.7343   185.0911    18.4662     8.8533
    6.2741   236.7969   169.5405    18.7348    10.2929
    6.2841   247.1946   150.9946    19.0505    11.6934
    6.2941   253.9652   130.1772    19.4074    13.0838
    6.3041   256.4281   108.1842    19.8041    14.4419
    6.3141   254.4005    86.3268    20.2312    15.7909
    6.3242   248.1310    65.8903    20.6838    17.1196
    6.3342   238.4145    47.9085    21.1569    18.4300
    6.3442   226.1748    33.0395    21.6498    19.7250
    6.3542   212.4611    21.5252    22.1604    21.0622
    6.3642   198.1950    13.2856    22.7085    22.3926
    6.3742   184.1068     8.0120    23.3034    23.7816
    6.3842   170.7413     5.2720    23.9717    25.2017
    6.3942   158.4280     4.6129    24.7361    26.6615
    6.4043   147.3546     5.5970    25.6197    28.1611
    6.4143   137.6141     7.8221    26.6503    29.6649
    6.4243   129.1871    10.9780    27.8475    31.1726
    6.4343   122.0606    14.7663    29.2343    32.6494
    6.4443   116.1471    18.9857    30.8321    34.0557
    6.4543   111.3841    23.4384    32.6531    35.3695
    6.4643   107.6831    27.9782    34.7131    36.5201
    6.4743   104.9623    32.4710    37.0111    37.4580
    6.4844   103.1252    36.8116    39.5339    38.1124
    6.4944   102.0828    40.8913    42.2501    38.3915
    6.5044   101.7138    44.6476    45.0911    38.2293
    6.5144   101.9017    48.0235    47.9575    37.5512
    6.5244   102.5239    51.0006    50.7130    36.3060
    6.5344   103.4644    53.6051    53.1942    34.4829
    6.5444   104.6449    55.8925    55.2221    32.1447
    6.5544   106.0275    57.9532    56.6345    29.4293
    6.5645   107.6363    59.8722    57.3290    26.5185
    6.5745   109.5562    61.6991    57.2822    23.6286
    6.5845   111.8911    63.4429    56.5438    21.0076
    6.5945   114.7811    65.0164    55.2698    18.7742
    6.6045   118.3077    66.2976    53.6157    17.0912
    6.6145   122.5270    67.0861    51.7799    15.9499
    6.6245   127.4302    67.1381    49.9235    15.3220
    6.6345   132.8923    66.2179    48.1642    15.1461
    6.6446   138.7382    64.0677    46.5779    15.3345
    6.6546   144.6796    60.4891    45.2087    15.7610
    6.6646   150.3445    55.3598    44.0508    16.3547
    6.6746   155.3185    48.6587    43.0838    17.0300
    6.6846   159.1329    40.5245    42.2582    17.7774
    6.6946   161.3727    31.2414    41.5396    18.5585
    6.7046   161.7023    21.2563    40.8947    19.3916
    6.7146   159.9348    11.1475    40.3072    20.3189
    6.7247   156.1453     1.4969    39.8015    21.3165
    6.7347   150.5577    -7.1190    39.3934    22.4534
    6.7447   143.6044   -14.2998    39.1277    23.7172
    6.7547   135.8117   -19.8509    39.0560    25.0664
    6.7647   127.6493   -23.7239    39.2076    26.5139
    6.7747   119.5549   -26.0534    39.6223    27.9965
    6.7847   111.8504   -27.0681    40.3280    29.4538
    6.7947   104.7430   -27.0275    41.3347    30.8451
   6.80476   98.34780  -26.19627   42.65471   32.07290
   6.81477   92.69398  -24.80140   44.27062   33.08439
   6.82478   87.77345  -23.06064   46.15449   33.78536
   6.83479   83.54160  -21.16263   48.25621   34.06716
   6.84481   79.90579  -19.21765   50.47153   33.88536
   6.85482   76.78629  -17.36892   52.68537   33.13546
   6.86483   74.06784  -15.68532   54.72903   31.80078
   6.87484   71.62764  -14.20468   56.41042   29.92495
   6.88486   69.35600  -12.95438   57.56136   27.57393
   6.89487   67.13860  -11.88654   58.02337   24.96101
   6.90488   64.89980  -10.95182   57.74173   22.27215
   6.91489   62.59201  -10.07273   56.73023   19.75647
   6.92491   60.20464   -9.17857   55.09159   17.61678
   6.93492   57.75733   -8.21943   52.99476   15.96702
   6.94493   55.27004   -7.12373   50.60583   14.91108
   6.95494   52.78834   -5.88796   48.10057   14.43750
   6.96496   50.34476   -4.48636   45.61833   14.50674
   6.97497   47.97412   -2.91335   43.26022   15.06330
   6.98498   45.71375   -1.19249   41.10168   16.00706
   6.99499   43.58817    0.67629   39.18140   17.26817
   7.00501   41.61992    2.67845   37.51261   18.79925
   7.01502   39.83325    4.76574   36.11061   20.50031
   7.02503   38.23040    6.94691   34.96041   22.36687
   7.03504   36.82327    9.16981   34.05915   24.33750
   7.04506   35.61038   11.41428   33.39649   26.38219
   7.05507   34.58348   13.67410   32.95903   28.49332
   7.06508   33.74198   15.90036   32.74315   30.63235
   7.07509   33.06893   18.10832   32.73755   32.80957
   7.08511   32.55838   20.26049   32.94178   35.00354
   7.09512   32.19731   22.34811   33.35890   37.19568
   7.10513   31.97078   24.37162   33.98739   39.40051
   7.11514   31.86905   26.30998   34.83989   41.58721
   7.12516   31.87905   28.16257   35.92915   43.73381
   7.13517   31.98803   29.93670   37.25905   45.85404
   7.14518   32.19413   31.60070   38.85807   47.86390
   7.15519   32.48381   33.18491   40.71965   49.79346
   7.16521   32.85680   34.65941   42.86521   51.54607
   7.17522   33.30503   36.01558   45.28471   53.09445
   7.18523   33.81454   37.23603   47.96255   54.37532
   7.19524   34.36257   38.29234   50.87234   55.29816
   7.20526   34.90694   39.18939   53.93965   55.84236
   7.21527   35.40063   39.91767   57.09336   55.92675
   7.22528   35.79034   40.49788   60.22498   55.53940
   7.23529   36.02581   40.98859   63.21144   54.70818
   7.24531   36.08501   41.43409   65.96674   53.43908
   7.25532   35.96600   41.91840   68.39008   51.84465
   7.26533   35.69852   42.51229   70.43597   50.01405
   7.27534   35.33879   43.25689   72.08851   48.04954
   7.28536   34.94669   44.20297   73.34856   46.06941
   7.29537   34.59568   45.32997   74.25734   44.14954
   7.30538   34.34088   46.64267   74.86375   42.37948
   7.31539   34.23436   48.10325   75.24396   40.83135
   7.32541   34.31465   49.67735   75.51094   39.53781
   7.33542   34.60986   51.33376   75.77315   38.54127
   7.34543   35.14268   53.03353   76.16983   37.79615
   7.35544   35.93538   54.72157   76.83035   37.19958
   7.36546   36.99700   56.37595   77.81722   36.65683
   7.37547   38.34590   57.92220   79.18507   35.96115
   7.38548   39.98314   59.31915   80.88489   34.95238
   7.39549   41.90846   60.49222   82.81419   33.44340
   7.40551   44.10587   61.35999   84.79560   31.28646
   7.41552   46.53279   61.85129   86.56704   28.44412
   7.42553   49.12374   61.87282   87.86683   24.93433
   7.43554   51.77702   61.34917   88.45143   20.89426
   7.44556   54.35325   60.23462   88.12807   16.60110
   7.45557   56.69020   58.51737   86.86054   12.32826
   7.46558   58.61492   56.25189   84.70461    8.39923
   7.47559   59.97849   53.54296   81.84930    5.02446
   7.48561   60.67403   50.55364   78.51691    2.34251
   7.49562   60.65417   47.47766   74.92854    0.39935
   7.50563   59.94443   44.48014   71.28775   -0.88325
   7.51564   58.60600   41.73260   67.71976   -1.58239
   7.52566   56.74025   39.35440   64.29663   -1.79365
   7.53567   54.47036   37.42036   61.06807   -1.64542
   7.54568   51.91538   35.99707   58.01766   -1.14901
   7.55570   49.20480   35.09095   55.15907   -0.39474
   7.56571   46.45589   34.68100   52.48780    0.57658
   7.57572   43.76257   34.73277   49.98507    1.78049
   7.58573   41.20587   35.16704   47.66898    3.12981
   7.59575   38.82767   35.94116   45.51795    4.67068
   7.60576   36.66159   36.96803   43.54463    6.35049
   7.61577   34.71561   38.19020   41.74870    8.16836
   7.62578   32.98454   39.56103   40.13292   10.12442
   7.63580   31.45741   41.02638   38.70530   12.19945
   7.64581   30.11442   42.55711   37.47490   14.36523
   7.65582   28.93375   44.12735   36.43988   16.62653
   7.66583   27.89532   45.71323   35.60980   18.93399
   7.67585   26.97474   47.32938   34.97194   21.32430
   7.68586   26.16132   48.95143   34.53647   23.73664
   7.69587   25.44193   50.59599   34.29363   26.19669
   7.70588   24.81237   52.26127   34.24855   28.67345
   7.71589   24.27253   53.94207   34.40362   31.15589
   7.72591   23.82005   55.65509   34.75482   33.67040
   7.73592   23.45926   57.38308   35.31718   36.17427
   7.74593   23.19095   59.12589   36.09739   38.67236
   7.75594   23.01380   60.89205   37.10197   41.17588
   7.76596   22.93203   62.65672   38.35814   43.62836
   7.77597   22.94285   64.43170   39.87244   46.05358
   7.78598   23.04786   66.20362   41.67456   48.39448
   7.79600   23.24744   67.96522   43.78247   50.62979
   7.80601   23.53805   69.72975   46.21350   52.72289
   7.81602   23.92389   71.46832   48.98986   54.59733
   7.82603   24.40085   73.19553   52.11361   56.18994
   7.83605   24.97056   74.89930   55.57435   57.41119
   7.84606   25.63425   76.57466   59.34576   58.13348
   7.85607   26.39305   78.22775   63.33095   58.29638
   7.86608   27.25393   79.84602   67.43056   57.74776
   7.87610   28.22578   81.41949   71.46245   56.42698
   7.88611   29.31440   82.94897   75.19613   54.32373
   7.89612   30.53318   84.39407   78.40620   51.46001
   7.90613   31.88178   85.74163   80.84334   48.01831
   7.91615   33.35763   86.94712   82.35146   44.22771
   7.92616   34.94252   87.96755   82.86431   40.40416
   7.93617   36.59627   88.77493   82.44147   36.86866
   7.94618   38.26616   89.32232   81.26324   33.87551
   7.95619   39.87263   89.60216   79.57365   31.59982
   7.96621   41.32772   89.62442   77.64513   30.09751
   7.97622   42.54451   89.43588   75.72264   29.33937
   7.98623   43.45354   89.12836   74.00771   29.21736
   7.99625   44.02608   88.80922   72.62640   29.61398
   8.00626   44.27880   88.59380   71.67920   30.33410
   8.01627   44.26791   88.58792   71.16683   31.27778
   8.02628   44.08248   88.85328   71.09895   32.26583
   8.03630   43.81787   89.42445   71.41677   33.21936
   8.04631   43.56051   90.31332   72.05630   34.07131
   8.05632   43.39464   91.47806   72.97024   34.75565
   8.06633   43.37235   92.90132   74.09216   35.29683
   8.07635   43.54165   94.52819   75.42061   35.65798
   8.08636   43.92899   96.32101   76.94733   35.85078
   8.09637   44.55246   98.23865   78.70049   35.82096
    8.1064    45.4248   100.2383    80.6886    35.4999
    8.1164    46.5449   102.3074    82.8821    34.8011
    8.1264    47.9240   104.4083    85.2157    33.5974
    8.1364    49.5705   106.5216    87.5779    31.7505
    8.1464    51.4894   108.6463    89.7357    29.2555
    8.1564    53.7099   110.7450    91.4995    26.0468
    8.1665    56.2540   112.8019    92.6041    22.2530
    8.1765    59.1500   114.7916    92.8428    18.0702
    8.1865    62.4408   116.6540    92.1114    13.7509
    8.1965    66.1505   118.3413    90.3810     9.6440
    8.2065    70.3104   119.7667    87.7895     6.0010
    8.2165    74.9311   120.8359    84.5318     3.0470
    8.2265    80.0079   121.4355    80.8460     0.9028
    8.2365    85.5152   121.4290    76.9901    -0.4527
    8.2466    91.3847   120.6746    73.1289    -1.0050
    8.2566    97.5098   119.0086    69.4427    -0.9029
    8.2666   103.7178   116.2727    66.0178    -0.2151
    8.2766   109.7516   112.3435    62.9242     0.9558
    8.2866   115.2955   107.1592    60.2111     2.4976
    8.2966   119.9687   100.7884    57.9000     4.3330
    8.3066   123.4050    93.4496    56.0021     6.3839
    8.3166   125.3297    85.5115    54.5264     8.5575
    8.3267   125.5966    77.4664    53.4536    10.8180
    8.3367   124.3095    69.7856    52.7862    13.0522
    8.3467   121.6891    62.9102    52.4896    15.2340
    8.3567   118.1178    57.1042    52.5316    17.3169
    8.3667   114.0122    52.4662    52.8926    19.2072
    8.3767   109.7363    48.9640    53.5087    20.9327
    8.3867   105.6101    46.4231    54.3592    22.4054
    8.3967   101.8280    44.6258    55.3894    23.6460
   8.40676   98.49666   43.31302   56.57132   24.61180
   8.41677   95.62210   42.23056   57.87212   25.27467
   8.42678   93.11995   41.16508   59.24939   25.60694
   8.43680   90.83153   39.97150   60.63940   25.59179
   8.44681   88.58175   38.55629   61.98269   25.15199
   8.45682   86.15102   36.97594   63.14030   24.35515
   8.46683   83.40629   35.30196   64.02470   23.14188
   8.47685   80.25463   33.71035   64.49085   21.62313
   8.48686   76.69112   32.39068   64.42965   19.92615
   8.49687   72.81061   31.47066   63.79842   18.17796
   8.50688   68.72413   31.08124   62.58246   16.60798
   8.51690   64.59092   31.23036   60.86918   15.35774
   8.52691   60.53952   31.90429   58.79063   14.54369
   8.53692   56.66875   33.05789   56.48868   14.26696
   8.54693   53.05613   34.59338   54.12907   14.50464
   8.55695   49.73301   36.44902   51.83513   15.24573
   8.56696   46.71768   38.53547   49.71118   16.41533
   8.57697   44.00390   40.79623   47.82563   17.93995
   8.58698   41.57607   43.18158   46.21609   19.75708
   8.59700   39.41882   45.63299   44.91280   21.77023
   8.60701   37.50404   48.13663   43.91768   23.93820
   8.61702   35.81086   50.66025   43.23295   26.20028
   8.62703   34.31712   53.18703   42.85694   28.49918
   8.63705   33.00097   55.70842   42.77829   30.80462
   8.64706   31.84327   58.21948   42.99022   33.06609
   8.65707   30.83047   60.70202   43.48311   35.23389
   8.66708   29.94265   63.17447   44.23334   37.28635
   8.67710   29.17271   65.61024   45.22666   39.14671
   8.68711   28.50472   68.02865   46.42168   40.78753
   8.69712   27.92961   70.42554   47.76631   42.16840
   8.70713   27.44181   72.78727   49.20404   43.21913
   8.71715   27.02722   75.14348   50.63231   43.97007
   8.72716   26.68431   77.47341   51.96878   44.39322
   8.73717   26.40515   79.79082   53.11666   44.53691
   8.74718   26.18560   82.09850   53.99332   44.48542
   8.75720   26.02402   84.39374   54.55991   44.30640
   8.76721   25.91658   86.68880   54.78611   44.13868
   8.77722   25.86293   88.98286   54.69766   44.05698
   8.78723   25.86444   91.26926   54.33531   44.15024
   8.79725   25.91741   93.56371   53.74961   44.51508
   8.80726   26.02483   95.85096   53.02633   45.17781
   8.81727   26.18367   98.13921   52.24343   46.18610
    8.8273    26.3910   100.4321    51.4825    47.5617
    8.8373    26.6487   102.7098    50.8424    49.2485
    8.8473    26.9469   104.9944    50.3717    51.2756
    8.8573    27.2842   107.2709    50.1437    53.5647
    8.8673    27.6530   109.5453    50.2007    56.0789
    8.8773    28.0451   111.8287    50.5716    58.7897
    8.8874    28.4583   114.1160    51.2943    61.6293
    8.8974    28.8851   116.4320    52.3853    64.5792
    8.9074    29.3281   118.7786    53.8723    67.5893
    8.9174    29.7901   121.1718    55.7862    70.6100
    8.9274    30.2772   123.6249    58.1458    73.6144
    8.9374    30.8009   126.1412    60.9937    76.5248
    8.9474    31.3713   128.7289    64.3562    79.2854
    8.9574    32.0002   131.3906    68.2735    81.7955
    8.9675    32.6984   134.1262    72.7586    83.9635
    8.9775    33.4752   136.9382    77.8213    85.6499
    8.9875    34.3395   139.8261    83.4447    86.6858
    8.9975    35.3010   142.7844    89.5509    86.8946
    9.0075    36.3650   145.8189    96.0074    86.0706
    9.0175    37.5439   148.9147   102.6053    84.0077
    9.0275    38.8390   152.0858   109.0086    80.5771
    9.0375    40.2616   155.3199   114.8389    75.7035
    9.0476    41.8173   158.6195   119.6472    69.4816
    9.0576    43.5109   161.9881   122.9936    62.1974
    9.0676    45.3535   165.4217   124.5740    54.2896
    9.0776    47.3501   168.9305   124.2498    46.3308
    9.0876    49.5159   172.5177   122.1194    38.8942
    9.0976    51.8692   176.1915   118.4800    32.4579
    9.1076    54.4311   179.9607   113.7337    27.3568
    9.1176    57.2382   183.8243   108.3841    23.6625
    9.1277    60.3225   187.7840   102.8123    21.3761
    9.1377    63.7264   191.8296    97.3659    20.3232
    9.1477    67.4923   195.9447    92.2673    20.3013
    9.1577    71.6619   200.1091    87.6390    21.1016
    9.1677    76.2817   204.2906    83.5451    22.5002
    9.1777    81.3995   208.4534    79.9893    24.3015
    9.1877    87.0639   212.5509    76.9054    26.4020
    9.1977    93.3388   216.5205    74.2486    28.6618
    9.2078   100.2821   220.2775    71.9312    31.0466
    9.2178   107.9638   223.7056    69.8897    33.5268
    9.2278   116.4457   226.6482    68.0850    36.0834
    9.2378   125.7577   228.9020    66.4677    38.7713
    9.2478   135.9069   230.2256    65.0575    41.5451
    9.2578   146.8060   230.3362    63.8380    44.4453
    9.2678   158.2820   228.9386    62.8168    47.4581
    9.2778   170.0347   225.7539    62.0041    50.5466
    9.2879   181.6298   220.5652    61.3737    53.7347
    9.2979   192.5210   213.2859    60.9179    57.0015
    9.3079   202.0927   204.0117    60.6298    60.3375
    9.3179   209.7337   193.0696    60.4862    63.7882
    9.3279   214.9471   181.0117    60.5025    67.3500
    9.3379   217.4598   168.5845    60.6919    71.0476
    9.3479   217.2684   156.5979    61.0780    74.8983
    9.3579   214.7067   145.8172    61.7006    78.8904
    9.3680   210.3160   136.8112    62.5775    83.0461
    9.3780   204.8052   129.8909    63.7550    87.3262
    9.3880   198.8788   125.0910    65.2560    91.7232
    9.3980   193.1507   122.2169    67.1104    96.2099
    9.4080   188.0858   120.9158    69.3440   100.7572
    9.4180   183.9695   120.7503    71.9791   105.3360
    9.4280   180.9187   121.2582    75.0357   109.9069
    9.4380   178.9128   121.9964    78.5337   114.4192
    9.4481   177.7605   122.5848    82.4762   118.8237
    9.4581   177.2128   122.7358    86.8688   123.0500
    9.4681   176.8789   122.3042    91.6824   127.0407
    9.4781   176.4021   121.3003    96.8770   130.7320
    9.4881   175.4367   119.9013   102.3921   134.0753
    9.4981   173.7660   118.4120   108.1472   137.0459
    9.5081   171.3403   117.1925   114.0821   139.6392
    9.5181   168.2444   116.5824   120.1242   141.8930
    9.5282   164.6961   116.8270   126.2340   143.8580
    9.5382   160.9716   118.0509   132.4238   145.5780
    9.5482   157.3288   120.2729   138.6825   147.0988
    9.5582   153.9800   123.4361   145.0450   148.4364
    9.5682   151.1065   127.4398   151.5212   149.6029
    9.5782   148.8111   132.1784   158.1320   150.6044
    9.5882   147.2068   137.5384   164.9195   151.4457
    9.5982   146.3394   143.4213   171.9095   152.1186
    9.6083   146.2763   149.7242   179.1543   152.5845
    9.6183   147.0452   156.3521   186.6667   152.7672
    9.6283   148.6914   163.2010   194.4324   152.5696
    9.6383   151.2313   170.1707   202.3866   151.9095
    9.6483   154.6754   177.1570   210.3831   150.7551
    9.6583   159.0276   184.0573   218.3115   149.1640
    9.6683   164.2844   190.7679   226.0761   147.2679
    9.6783   170.4288   197.1829   233.6601   145.2342
    9.6884   177.4516   203.1908   241.1588   143.2170
    9.6984   185.3216   208.6715   248.7465   141.3083
    9.7084   193.9714   213.4937   256.5485   139.5005
    9.7184   203.3131   217.5453   264.7634   137.7579
    9.7284   213.2047   220.7359   273.4929   136.0040
    9.7384   223.4813   223.0263   282.8571   134.1757
    9.7484   233.9808   224.4376   293.0161   132.2136
    9.7584   244.5445   225.0220   304.1151   129.9849
    9.7685   255.0992   224.8985   316.4762   127.3094
    9.7785   265.5817   224.1643   330.2790   123.7956
    9.7885   275.9969   222.9320   345.6673   118.9084
    9.7985   286.3998   221.3224   362.6756   112.0231
    9.8085   296.8678   219.3898   380.9127   102.3480
    9.8185   307.6075   217.2221   399.9606    89.2735
    9.8285   318.8037   214.7275   418.8942    72.1993
    9.8385   330.7109   211.7573   436.6895    50.8399
    9.8486   343.5116   207.9925   452.1630    25.2270
    9.8586   357.2987   203.0063   464.0298    -4.2581
    9.8686   371.9732   196.2473   471.0931   -36.7869
    9.8786   387.2906   187.2010   472.5355   -71.0925
    9.8886   402.6593   175.2747   467.7280  -105.6163
    9.8986   417.3180   160.1338   456.9041  -138.6229
    9.9086   430.2135   141.6545   440.7742  -168.5363
    9.9186   440.1921   120.1214   420.4790  -194.1730
    9.9287   446.2593    96.3566   397.7421  -214.9696
    9.9387   447.5647    71.4550   373.6522  -230.7830
    9.9487   443.9820    46.9212   349.8117  -242.1443
    9.9587   435.7090    24.1092   326.9033  -249.6554
    9.9687   423.5072     4.1990   305.4954  -254.1118
    9.9787   408.4398   -12.0026   285.9308  -256.3578
    9.9887   391.5960   -24.1175   268.0965  -256.9780
    9.9987   374.0331   -32.0974   251.8596  -256.4698
   10.0088   356.7471   -36.1538   237.1017  -255.2533
   10.0188   340.4207   -36.6788   223.4991  -253.4063
   10.0288   325.6853   -34.1629   211.0080  -251.1549
   10.0388   312.9358   -29.1408   199.4729  -248.5190
   10.0488   302.4668   -22.1525   188.8645  -245.6282
   10.0588   294.3475   -13.6961   179.1023  -242.5601
   10.0688   288.7336    -4.2543   170.0889  -239.3871
   10.0788   285.5587     5.7586   161.7766  -236.2737
   10.0889   284.8329    15.9487   153.9948  -233.1719
   10.0989   286.4109    25.9651   146.6401  -230.0774
   10.1089   290.2871    35.4539   139.6965  -227.0606
   10.1189   296.2361    44.0746   133.0585  -223.9690
   10.1289   304.1612    51.4792   126.7658  -220.8806
   10.1389   313.7815    57.3240   120.8132  -217.8108
   10.1489   324.7733    61.2933   115.1137  -214.6291
   10.1589   336.7372    63.1463   109.7386  -211.5905
   10.1690   349.1571    62.7574   104.5540  -208.5068
   10.1790   361.4471    60.1642    99.5446  -205.4291
   10.1890   373.0955    55.6239    94.6956  -202.3602
   10.1990   383.6193    49.5650    89.9722  -199.1677
   10.2090   392.8263    42.5841    85.4150  -195.8614
   10.2190   400.7169    35.3036    81.0688  -192.4383
   10.2290   407.5707    28.2826    76.9551  -188.8362
   10.2390   413.9449    21.9344    73.1440  -185.1784
   10.2491   420.4386    16.3857    69.6322  -181.4052
   10.2591   427.7719    11.4937    66.4369  -177.5632
   10.2691   436.5992     6.7987    63.5790  -173.7609
   10.2791   447.3380     1.5463    61.0303  -169.9502
   10.2891   460.1489    -5.2195    58.7905  -166.2040
   10.2991   474.8239   -14.5420    56.8505  -162.5761
   10.3091   490.6416   -27.4357    55.1828  -159.0550
   10.3191   506.6575   -44.6081    53.7699  -155.6784
   10.3292   521.2568   -66.4441    52.5850  -152.4619
   10.3392   533.1485   -92.6125    51.6048  -149.4630
   10.3492   540.7540  -122.2984    50.7888  -146.6948
   10.3592   543.1752  -154.1401    50.0808  -144.1364
   10.3692   540.1429  -186.5686    49.4448  -141.8903
   10.3792   531.8257  -218.1619    48.7976  -139.8496
   10.3892   518.9445  -247.8158    48.0875  -138.0213
   10.3992   502.2666  -274.8507    47.2626  -136.3352
   10.4093   482.5802  -298.8987    46.2977  -134.7294
   10.4193   460.5388  -319.7704    45.1964  -133.1498
   10.4293   436.7185  -337.3202    43.9860  -131.5484
   10.4393   411.6378  -351.4032    42.7029  -129.8578
   10.4493   385.8841  -361.9378    41.3967  -128.0687
   10.4593   360.0890  -368.9641    40.1053  -126.1419
   10.4693   334.8955  -372.7164    38.8756  -124.1486
   10.4793   310.7954  -373.5186    37.7273  -122.0744
   10.4894   288.1709  -371.8104    36.6755  -119.9366
   10.4994   267.2894  -368.0891    35.7333  -117.7856
   10.5094   248.2065  -362.7603    34.8935  -115.5807
   10.5194   230.9465  -356.2422    34.1601  -113.3682
   10.5294   215.5056  -348.9628    33.5355  -111.1956
   10.5394   201.6362  -341.0066    32.9978  -108.9585
   10.5494   189.3828  -332.8506    32.5660  -106.8164
   10.5594   178.4761  -324.4664    32.2175  -104.6591
   10.5695   168.8218  -316.0446    31.9503  -102.5074
   10.5795   160.3074  -307.7065    31.7696  -100.4275
   10.5895   152.7694  -299.4229    31.6555   -98.3218
   10.5995   146.1609  -291.3323    31.6196   -96.2995
   10.6095   140.3543  -283.3648    31.6451   -94.2834
   10.6195   135.3186  -275.5966    31.7289   -92.2844
   10.6295   130.9927  -268.0061    31.8719   -90.3331
   10.6396   127.3437  -260.5996    32.0624   -88.3662
   10.6496   124.3488  -253.3872    32.3072   -86.4258
   10.6596   122.0049  -246.4093    32.6068   -84.4915
   10.6696   120.2874  -239.6557    32.9614   -82.5271
   10.6796   119.2070  -233.1943    33.3852   -80.5686
   10.6896   118.7562  -227.0643    33.8846   -78.5989
   10.6996   118.9332  -221.3367    34.4657   -76.5960
   10.7096   119.7082  -216.0580    35.1435   -74.5886
   10.7196   121.0544  -211.3369    35.9195   -72.5295
   10.7297   122.9179  -207.2929    36.8124   -70.4637
   10.7397   125.1987  -204.0374    37.8289   -68.3674
   10.7497   127.7230  -201.6163    38.9792   -66.2297
   10.7597   130.3334  -200.1739    40.2883   -64.1052
   10.7697   132.7444  -199.6098    41.7556   -61.9111
   10.7797   134.7434  -199.8881    43.4127   -59.7114
   10.7897   136.1128  -200.7944    45.2751   -57.4735
   10.7997   136.7304  -202.0545    47.3661   -55.1930
   10.8098   136.6057  -203.3876    49.7215   -52.8916
   10.8198   135.8521  -204.5116    52.3788   -50.5800
   10.8298   134.6619  -205.1954    55.3749   -48.2402
   10.8398   133.3105  -205.3691    58.7608   -45.8799
   10.8498   132.0214  -204.9492    62.5948   -43.5070
   10.8598   131.0671  -204.0594    66.9607   -41.1646
   10.8698   130.6291  -202.7640    71.9443   -38.8677
   10.8799   130.8689  -201.1750    77.6483   -36.6274
   10.8899   131.9778  -199.5091    84.2387   -34.5577
   10.8999   134.0554  -197.8247    91.8557   -32.6489
   10.9099   137.3207  -196.3812   100.7527   -31.0535
   10.9199   141.9750  -195.3429   111.2299   -29.8965
   10.9299   148.3314  -194.9750   123.6983   -29.3534
   10.9399   156.8876  -195.6827   138.8140   -29.7324
   10.9499   168.4165  -198.0276   157.5616   -31.4034
   10.9599   184.3832  -203.0552   181.7838   -34.9625
   10.9700   207.9364  -212.8860   215.5038   -41.3220
   10.9800   248.2982  -233.2634   270.7433   -51.7502
   10.9900   382.1159  -308.3033   449.1212   -57.6486
   11.0000     9.8869  -564.3846    21.8764  -652.1924
# 
# 08/23/2016 at 13:20 YAMBO @ narro [start]
# 08/23/2016 at 13:20               [end]
#  
# Timing   [Min/Max/Average]: 04s/04s/04s
#
# .-Input file : yambo.in
# | optics                       # [R OPT] Optics
# | bse                          # [R BSE] Bethe Salpeter Equation.
# | bsk                          # [R BSK] Bethe Salpeter Equation kernel
# | bss                          # [R BSS] Bethe Salpeter Equation solver
# | tddft                        # [R   K] Use TDDFT kernel
# | BoseTemp= 0.000000     eV    # Bosonic Temperature
# | BS_nCPU_invert= 1            # [PARALLEL] CPUs for matrix inversion
# | BS_nCPU_diago= 1             # [PARALLEL] CPUs for matrix diagonalization
# | NonPDirs= "XYZ"              # [X/BSS] Non periodic chartesian directions (X,Y,Z,XY...)
# | BSEmod= "resonant"           # [BSE] resonant/retarded/coupling
# | BSKmod= "ALDA"               # [BSE] IP/Hartree/HF/ALDA/SEX/BSfxc
# | BSSmod= "d"                  # [BSS] (h)aydock/(d)iagonalization/(i)nversion/(t)ddft`
# | BSENGexx= 1535         mHa   # [BSK] Exchange components
# | % BEnRange
# |   3.00000 | 11.00000 | eV    # [BSS] Energy range
# | %
# | % BDmRange
# |   0.10000 |  0.10000 | eV    # [BSS] Damping range
# | %
# | BEnSteps=  800               # [BSS] Energy steps
# | % BLongDir
# | 0.5774E-5 |0.5774E-5 |0.5774E-5 |        # [BSS] [cc] Electric Field
# | %
# | % BSEBands
# |   14 |  34 |                 # [BSK] Bands range
# | %
