#                                                           
# ooooo   oooo ..     ooo        ooo ooooooooo.    .oooo.   
#  `88.   .8" .88.    `88.       .88 `88"   `Y8b  dP"  `Yb  
#   `88. .8" .8"88.    888b     d"88  88     888 88      88 
#    `88.8" .8" `88.   8 Y88. .P  88  88oooo888" 88      88 
#     `88" .88ooo888.  8  `888"   88  88    `88b 88      88 
#      88 .8"     `88. 8    Y     88  88    .88P `8b    d8" 
#     o88o88o      888o8          88 o88bood8P"   `Ybod8P"  
#                                                           
#                                                           
#         Version 4.1.2 Revision 14094 Hash 25dd020         
#                         MPI Build                         
#                 http://www.yambo-code.org                 
#
# Polarizability ( -<<X>> ) [volume @ Q(1) [q->0 direction]0.5774E-5 0.5774E-5 0.5774E-5
#
#
# - Energies      are Teter 93(XC)
# - Wavefunctions are Teter 93(XC)
#
# - The Green`s function is Resonant -
# - Using the Length Gauge -
# - [r,Vnl] *is* included -
#
#   BSK|Identifier              :1144
#      |Dimension               :110
#      |Bands                   :14 - 34
#      |Exchange           [res]: yes
#      |Correlation        [res]: no
#      |Kernel`s coupling       : no
#      |Exchange           [cpl]: no
#      |Correlation        [cpl]: no
#      |W interaction is bare   : no
#      |ALDA kernel in R-space  : yes
#      |RL vectors    [exchange]:367
#      |E/h energy range    [ev]:-1.000000 - -1.000000
#      |Coupling range     [o/o]: 100.0000 -  100.0000
#  
#   Haydock|Accuracy (requested) [o/o]:   0.0050
#          |Accuracy (reached)   [o/o]:   0.0019
#          |Iteration                 :76
#
#  E/ev[1]    ALPHA-Im[2]ALPHA-Re[3]ALPHAo-Im[4ALPHAo-Re[5ALPHA`-Im[6ALPHA`-Re[7]
#
  3.000     0.1023E-1   60.26     0.4145E-1   101.7     0.1023E-1   60.26   
    3.0160     0.7820    60.3711     3.1120   102.3167     0.7820    60.3708
    3.0321     0.7982    60.1360     3.2377   101.5046     0.7982    60.1357
    3.0481     0.8053    60.1173     3.3105   101.5337     0.8053    60.1170
    3.0641     0.8119    60.1414     3.3791   101.7513     0.8119    60.1412
    3.0802     0.8183    60.1880     3.4468   102.0592     0.8183    60.1877
    3.0962     0.8248    60.2484     3.5148   102.4259     0.8248    60.2482
    3.1122     0.8312    60.3185     3.5838   102.8352     0.8312    60.3183
    3.1283     0.8377    60.3936     3.6540   103.2795     0.8377    60.3934
    3.1443     0.8442    60.4746     3.7259   103.7457     0.8442    60.4744
    3.1603     0.8507    60.5664     3.7992   104.2451     0.8507    60.5663
    3.1764     0.8573    60.6573     3.8745   104.7612     0.8573    60.6571
    3.1924     0.8640    60.7523     3.9520   105.2950     0.8640    60.7520
    3.2084     0.8708    60.8465     4.0316   105.8499     0.8708    60.8462
    3.2244     0.8776    60.9505     4.1134   106.4263     0.8776    60.9503
    3.2405     0.8845    61.0524     4.1977   107.0155     0.8845    61.0521
    3.2565     0.8914    61.1565     4.2846   107.6247     0.8914    61.1562
    3.2725     0.8985    61.2645     4.3740   108.2535     0.8985    61.2643
    3.2886     0.9057    61.3693     4.4665   108.8950     0.9057    61.3690
    3.3046     0.9129    61.4826     4.5618   109.5582     0.9129    61.4823
    3.3206     0.9202    61.5947     4.6603   110.2368     0.9202    61.5945
    3.3367     0.9276    61.7099     4.7620   110.9359     0.9276    61.7097
    3.3527     0.9352    61.8260     4.8671   111.6508     0.9352    61.8257
    3.3687     0.9428    61.9433     4.9759   112.3859     0.9428    61.9431
    3.3848     0.9505    62.0629     5.0885   113.1384     0.9505    62.0626
    3.4008     0.9583    62.1845     5.2049   113.9127     0.9583    62.1843
    3.4168     0.9662    62.3052     5.3257   114.7035     0.9662    62.3050
    3.4329     0.9742    62.4331     5.4507   115.5191     0.9742    62.4329
    3.4489     0.9824    62.5578     5.5804   116.3527     0.9824    62.5576
    3.4649     0.9906    62.6873     5.7149   117.2107     0.9906    62.6870
    3.4810     0.9990    62.8172     5.8545   118.0904     0.9990    62.8171
    3.4970     1.0074    62.9486     5.9995   118.9940     1.0074    62.9483
    3.5130     1.0160    63.0793     6.1502   119.9189     1.0160    63.0790
    3.5291     1.0248    63.2126     6.3070   120.8691     1.0248    63.2124
    3.5451     1.0335    63.3547     6.4698   121.8493     1.0335    63.3544
    3.5611     1.0425    63.4918     6.6394   122.8536     1.0425    63.4915
    3.5772     1.0516    63.6243     6.8164   123.8814     1.0516    63.6241
    3.5932     1.0608    63.7673     7.0003   124.9445     1.0608    63.7671
    3.6092     1.0702    63.9139     7.1921   126.0385     1.0702    63.9137
    3.6253     1.0796    64.0606     7.3926   127.1589     1.0796    64.0604
    3.6413     1.0893    64.2067     7.6018   128.3132     1.0893    64.2065
    3.6573     1.0990    64.3540     7.8203   129.5021     1.0990    64.3538
    3.6733     1.1090    64.5020     8.0490   130.7242     1.1090    64.5018
    3.6894     1.1190    64.6533     8.2883   131.9833     1.1190    64.6531
    3.7054     1.1292    64.8110     8.5387   133.2833     1.1292    64.8108
    3.7214     1.1396    64.9627     8.8011   134.6225     1.1396    64.9624
    3.7375     1.1502    65.1199     9.0765   136.0030     1.1502    65.1196
    3.7535     1.1608    65.2825     9.3656   137.4269     1.1608    65.2822
    3.7695     1.1717    65.4474     9.6691   138.8992     1.1717    65.4472
    3.7856     1.1827    65.6066     9.9887   140.4152     1.1827    65.6064
    3.8016     1.1940    65.7668    10.3248   141.9852     1.1940    65.7666
    3.8176     1.2054    65.9346    10.6789   143.6076     1.2054    65.9343
    3.8337     1.2170    66.1047    11.0524   145.2860     1.2170    66.1045
    3.8497     1.2287    66.2765    11.4467   147.0225     1.2287    66.2762
    3.8657     1.2407    66.4478    11.8633   148.8215     1.2407    66.4476
    3.8818     1.2528    66.6237    12.3039   150.6875     1.2528    66.6235
    3.8978     1.2652    66.7963    12.7712   152.6180     1.2652    66.7961
    3.9138     1.2778    66.9774    13.2662   154.6250     1.2778    66.9771
    3.9299     1.2905    67.1603    13.7916   156.7103     1.2905    67.1600
    3.9459     1.3036    67.3409    14.3509   158.8730     1.3036    67.3407
    3.9619     1.3168    67.5268    14.9461   161.1232     1.3168    67.5265
    3.9780     1.3302    67.7156    15.5807   163.4658     1.3302    67.7154
    3.9940     1.3439    67.9057    16.2584   165.9051     1.3439    67.9054
    4.0100     1.3579    68.0957    16.9832   168.4478     1.3579    68.0954
    4.0261     1.3721    68.2895    17.7594   171.1021     1.3721    68.2893
    4.0421     1.3864    68.4916    18.5922   173.8742     1.3864    68.4912
    4.0581     1.4012    68.6873    19.4887   176.7682     1.4012    68.6872
    4.0741     1.4161    68.8933    20.4542   179.7979     1.4161    68.8931
    4.0902     1.4314    69.0966    21.4969   182.9698     1.4314    69.0964
    4.1062     1.4469    69.3003    22.6251   186.2954     1.4469    69.3001
    4.1222     1.4627    69.5080    23.8493   189.7841     1.4628    69.5077
    4.1383     1.4788    69.7222    25.1800   193.4509     1.4788    69.7219
    4.1543     1.4952    69.9397    26.6320   197.3054     1.4952    69.9396
    4.1703     1.5120    70.1565    28.2204   201.3626     1.5120    70.1562
    4.1864     1.5291    70.3756    29.9646   205.6363     1.5291    70.3754
    4.2024     1.5465    70.6012    31.8848   210.1442     1.5465    70.6010
    4.2184     1.5642    70.8270    34.0090   214.8996     1.5642    70.8268
    4.2345     1.5823    71.0546    36.3679   219.9195     1.5823    71.0544
    4.2505     1.6009    71.2842    38.9980   225.2197     1.6009    71.2840
    4.2665     1.6197    71.5188    41.9432   230.8131     1.6197    71.5186
    4.2826     1.6390    71.7577    45.2533   236.7101     1.6390    71.7575
    4.2986     1.6587    72.0002    48.9788   242.9168     1.6587    72.0000
    4.3146     1.6787    72.2469    53.1661   249.4303     1.6787    72.2466
    4.3307     1.6993    72.4913    57.8457   256.2352     1.6993    72.4911
    4.3467     1.7204    72.7400    63.0191   263.3008     1.7204    72.7397
    4.3627     1.7419    72.9960    68.6703   270.5978     1.7419    72.9959
    4.3788     1.7639    73.2532    74.7805   278.1467     1.7639    73.2530
    4.3948     1.7864    73.5138    81.3528   286.0702     1.7864    73.5136
    4.4108     1.8095    73.7803    88.4502   294.5772     1.8095    73.7800
    4.4269     1.8331    74.0493    96.2646   303.8905     1.8331    74.0490
    4.4429     1.8572    74.3224   105.1366   314.1864     1.8572    74.3222
    4.4589     1.8817    74.6000   115.4945   325.5863     1.8817    74.5998
    4.4749     1.9068    74.8805   127.7790   338.1338     1.9068    74.8803
    4.4910     1.9322    75.1641   142.4508   351.7755     1.9322    75.1639
    4.5070     1.9581    75.4528   160.0511   366.3560     1.9581    75.4525
    4.5230     1.9845    75.7463   181.2463   381.6277     1.9845    75.7460
    4.5391     2.0115    76.0410   206.8642   397.2022     2.0115    76.0409
    4.5551     2.0392    76.3411   237.9004   412.4539     2.0392    76.3409
    4.5711     2.0676    76.6495   275.5211   426.3611     2.0676    76.6492
    4.5872     2.0967    76.9626   320.9950   437.2735     2.0967    76.9623
    4.6032     2.1267    77.2781   375.4651   442.6428     2.1267    77.2778
    4.6192     2.1574    77.6012   439.5127   438.6558     2.1574    77.6010
    4.6353     2.1890    77.9282   512.2465   420.1381     2.1890    77.9279
    4.6513     2.2216    78.2590   589.9553   380.9955     2.2216    78.2587
    4.6673     2.2550    78.5931   664.7467   315.8597     2.2550    78.5929
    4.6834     2.2894    78.9360   724.4091   223.4891     2.2894    78.9357
    4.6994     2.3248    79.2836   755.5324   110.4796     2.3248    79.2834
    4.7154     2.3612    79.6372   749.7491    -8.6030     2.3612    79.6369
    4.7315     2.3986    79.9979   708.6680  -116.5190     2.3986    79.9977
    4.7475     2.4373    80.3633   642.9189  -200.8289     2.4373    80.3632
    4.7635     2.4771    80.7329   566.1934  -257.6371     2.4771    80.7326
    4.7796     2.5182    81.1100   489.4245  -289.8707     2.5182    81.1098
    4.7956     2.5607    81.4936   419.1231  -303.3752     2.5607    81.4933
    4.8116     2.6045    81.8850   357.9356  -304.0773     2.6045    81.8847
    4.8277     2.6500    82.2788   306.2103  -296.7495     2.6500    82.2786
    4.8437     2.6970    82.6844   263.0804  -284.7447     2.6970    82.6842
    4.8597     2.7458    83.1000   227.3330  -270.3024     2.7458    83.0997
    4.8758     2.7966    83.5180   197.7524  -254.8734     2.7966    83.5178
    4.8918     2.8494    83.9461   173.1848  -239.2735     2.8494    83.9459
    4.9078     2.9045    84.3828   152.6951  -224.0061     2.9045    84.3825
    4.9238     2.9621    84.8250   135.5348  -209.3794     2.9622    84.8247
    4.9399     3.0225    85.2758   121.0619  -195.4883     3.0225    85.2754
    4.9559     3.0856    85.7365   108.7844  -182.3820     3.0857    85.7363
    4.9719     3.1516    86.2053    98.3168  -170.0773     3.1516    86.2050
    4.9880     3.2202    86.6774    89.3429  -158.5440     3.2202    86.6772
    5.0040     3.2906    87.1599    81.6095  -147.7338     3.2906    87.1597
    5.0200     3.3617    87.6515    74.9080  -137.5787     3.3617    87.6512
    5.0361     3.4326    88.1464    69.0904  -128.0701     3.4326    88.1463
    5.0521     3.5027    88.6572    64.0135  -119.1242     3.5027    88.6570
    5.0681     3.5729    89.1774    59.5658  -110.6744     3.5729    89.1771
    5.0842     3.6444    89.7117    55.6693  -102.7082     3.6444    89.7113
   5.10020    3.71880   90.25965   52.24632  -95.16398    3.71881   90.25935
   5.11623    3.79750   90.82295   49.23324  -87.98493    3.79751   90.82274
   5.13226    3.88146   91.40044   46.58811  -81.16376    3.88147   91.40027
   5.14830    3.97138   91.99248   44.26364  -74.63826    3.97140   91.99216
   5.16433    4.06781   92.60007   42.23093  -68.39643    4.06782   92.59972
   5.18036    4.17141   93.21873   40.45922  -62.39347    4.17142   93.21853
   5.19639    4.28264   93.84927   38.93114  -56.62440    4.28265   93.84900
   5.21242    4.40168   94.49268   37.62582  -51.04879    4.40169   94.49239
   5.22846    4.52834   95.14683   36.52733  -45.63251    4.52835   95.14658
   5.24449    4.66139   95.81113   35.62978  -40.37732    4.66140   95.81090
   5.26052    4.79835   96.48168   34.92352  -35.25746    4.79836   96.48143
   5.27655    4.93518   97.16468   34.39994  -30.24718    4.93519   97.16444
   5.29258    5.06798   97.86222   34.05223  -25.32754    5.06799   97.86194
   5.30862    5.19524   98.57420   33.87835  -20.49802    5.19525   98.57394
   5.32465    5.31837   99.31193   33.87334  -15.72085    5.31838   99.31178
    5.3407     5.4417   100.0807    34.0413   -10.9574     5.4417   100.0806
    5.3567     5.5704   100.8803    34.4036    -6.1954     5.5704   100.8801
    5.3727     5.7085   101.7095    34.9872    -1.4002     5.7085   101.7093
    5.3888     5.8588   102.5702    35.8291     3.4508     5.8588   102.5700
    5.4048     6.0227   103.4621    36.9720     8.3734     6.0227   103.4619
    5.4208     6.2017   104.3819    38.4692    13.3669     6.2017   104.3818
    5.4369     6.3966   105.3321    40.3781    18.4465     6.3966   105.3320
    5.4529     6.6083   106.3134    42.7736    23.6069     6.6084   106.3131
    5.4689     6.8385   107.3226    45.7503    28.8198     6.8385   107.3224
    5.4850     7.0883   108.3629    49.4126    34.0678     7.0883   108.3627
    5.5010     7.3589   109.4344    53.8925    39.2722     7.3590   109.4342
    5.5170     7.6513   110.5395    59.3272    44.3347     7.6513   110.5391
    5.5331     7.9655   111.6708    65.8637    49.0795     7.9655   111.6706
    5.5491     8.2997   112.8337    73.6153    53.3128     8.2997   112.8335
    5.5651     8.6503   114.0305    82.6816    56.7588     8.6503   114.0302
    5.5812     9.0143   115.2626    93.1493    59.0949     9.0143   115.2624
    5.5972     9.3907   116.5436   105.0987    59.9178     9.3907   116.5432
    5.6132     9.7839   117.8833   118.5743    58.6006     9.7839   117.8831
    5.6293    10.2034   119.2890   133.3660    54.1910    10.2034   119.2888
    5.6453    10.6605   120.7682   148.6435    45.4858    10.6605   120.7679
    5.6613    11.1667   122.3241   162.7176    31.4242    11.1667   122.3239
    5.6774    11.7329   123.9557   173.0630    11.9347    11.7329   123.9554
    5.6934    12.3699   125.6632   177.0755   -11.3325    12.3699   125.6630
    5.7094    13.0888   127.4490   173.3500   -35.1136    13.0888   127.4488
    5.7255    13.9034   129.3105   162.6080   -55.8486    13.9034   129.3103
    5.7415    14.8295   131.2432   147.3035   -71.2461    14.8295   131.2430
    5.7575    15.8851   133.2417   130.2414   -80.7893    15.8851   133.2416
    5.7735    17.0894   135.2961   113.5853   -85.2772    17.0894   135.2959
    5.7896    18.4620   137.3780    98.5686   -86.0536    18.4620   137.3777
    5.8056    20.0145   139.4604    85.6101   -84.3234    20.0145   139.4604
    5.8216    21.7449   141.5034    74.7210   -81.0946    21.7450   141.5032
    5.8377    23.6293   143.4667    65.6770   -77.0386    23.6295   143.4663
    5.8537    25.6213   145.3269    58.1917   -72.6042    25.6213   145.3267
    5.8697    27.6690   147.0886    51.9823   -68.0824    27.6690   147.0883
    5.8858    29.7399   148.7817    46.7873   -63.5989    29.7399   148.7816
    5.9018    31.8306   150.4291    42.4038   -59.2537    31.8306   150.4290
    5.9178    33.9343   152.0318    38.6673   -55.0836    33.9345   152.0319
    5.9339    35.9986   153.5927    35.4407   -51.0353    35.9989   153.5924
    5.9499    37.9317   155.1535    32.6484   -47.1710    37.9313   155.1530
    5.9659    39.6603   156.8468    30.2200   -43.4353    39.6598   156.8470
    5.9820    41.2118   158.8730    28.1106   -39.8184    41.2124   158.8736
    5.9980    42.7435   161.4125    26.2847   -36.3241    42.7445   161.4123
    6.0140    44.4896   164.5513    24.7107   -32.9615    44.4895   164.5502
    6.0301    46.6820   168.2722    23.3554   -29.7100    46.6808   168.2717
    6.0461    49.5102   172.4834    22.1921   -26.5666    49.5096   172.4845
    6.0621    53.1119   177.0620    21.1979   -23.5282    53.1132   177.0631
    6.0782    57.5775   181.8859    20.3546   -20.5960    57.5793   181.8853
    6.0942    62.9639   186.8502    19.6444   -17.7419    62.9635   186.8480
    6.1102    69.3209   191.8858    19.0568   -14.9710    69.3186   191.8844
    6.1263    76.7467   196.9713    18.5820   -12.2698    76.7449   196.9733
    6.1423    85.4445   202.1049    18.2135    -9.6351    85.4466   202.1085
    6.1583    95.7469   207.2106    17.9454    -7.0557    95.7507   207.2106
    6.1743   108.0802   211.9973    17.7747    -4.5411   108.0821   211.9921
    6.1904   122.8993   215.8410    17.6946    -2.0675   122.8959   215.8365
    6.2064   140.6177   217.7402    17.7022     0.3582   140.6116   217.7431
    6.2224   161.4084   216.3309    17.7949     2.7463   161.4068   216.3396
    6.2385   184.8192   209.9178    17.9767     5.0980   184.8270   209.9217
    6.2545   209.3264   196.6677    18.2545     7.4335   209.3352   196.6589
    6.2705   232.0305   175.2529    18.6396     9.7443   232.0262   175.2402
    6.2866   248.9069   145.9438    19.1399    11.9990   248.8917   145.9461
    6.3026   256.1137   111.5366    19.7457    14.2058   256.1129   111.5534
    6.3186   251.9328    76.9274    20.4362    16.3583   251.9443    76.9340
    6.3347   237.7919    47.1175    21.1867    18.4574   237.8007    47.1071
    6.3507   217.3489    25.1796    21.9843    20.5629   217.3452    25.1671
    6.3667   194.6264    11.6939    22.8576    22.7158   194.6172    11.6919
    6.3828   172.6877     5.5180    23.8727    24.9725   172.6820     5.5255
    6.3988   153.2857     4.8535    25.1293    27.3045   153.2890     4.8609
    6.4148   137.1548     7.9465    26.7202    29.7198   137.1613     7.9490
    6.4309   124.4091    13.3725    28.7455    32.1134   124.4149    13.3693
    6.4469   114.8609    20.0718    31.2938    34.3566   114.8627    20.0654
    6.4629   108.1985    27.2816    34.4282    36.3009   108.1952    27.2761
    6.4790   104.0709    34.4331    38.1710    37.7170   104.0646    34.4312
    6.4950   102.1048    41.0671    42.4509    38.3046   102.0988    41.0711
    6.5110   101.8496    46.8608    47.0295    37.7376   101.8493    46.8686
    6.5271   102.8010    51.6624    51.4323    35.7855   102.8087    51.6696
    6.5431   104.5095    55.5563    54.9910    32.4440   104.5221    55.5557
    6.5591   106.7738    58.8276    57.0419    28.0886   106.7819    58.8158
    6.5752   109.7448    61.7816    57.2271    23.4915   109.7383    61.7648
    6.5912   113.8466    64.4551    55.7173    19.5162   113.8259    64.4479
    6.6072   119.5148    66.4645    53.1177    16.7640   119.4958    66.4794
    6.6232   126.9063    67.0577    50.1536    15.3958   126.9118    67.0886
    6.6393   135.7246    65.2628    47.3912    15.1986   135.7602    65.2815
    6.6553   145.1333    60.1256    45.1238    15.7811   145.1696    60.1018
    6.6713   153.7518    51.0405    43.3911    16.7695   153.7443    50.9854
    6.6874   159.8116    38.1401    42.0613    17.9551   159.7566    38.1133
    6.7034   161.6037    22.5926    40.9762    19.2674   161.5579    22.6344
    6.7194   158.1736     6.5328    40.0608    20.7633   158.1933     6.5998
    6.7355   149.8827    -7.6312    39.3734    22.5302   149.9480    -7.6106
    6.7515   138.2638   -18.1409    39.0641    24.6044   138.3089   -18.1849
    6.7675   125.3249   -24.4498    39.3090    26.8965   125.3118   -24.5146
    6.7836   112.7472   -27.0026    40.2470    29.2382   112.6883   -27.0305
    6.7996   101.5710   -26.7462    41.9573    31.4011   101.5170   -26.7175
   6.81563   92.24586  -24.71152   44.45042   33.07558   92.24072  -24.65022
   6.83166   84.80359  -21.80781   47.61711   33.92070   84.85555  -21.76249
   6.84770   78.99136  -18.71121   51.15595   33.61605   79.06310  -18.72342
   6.86373   74.40249  -15.90691   54.54450   31.89404   74.43158  -15.97401
   6.87976   70.54185  -13.62583   57.06309   28.77608   70.49397  -13.69140
   6.89579   66.94580  -11.85270   58.02301   24.71115   66.86038  -11.85301
   6.91182   63.29235  -10.36238   57.09052   20.54238   63.25230  -10.29451
   6.92786   59.47543   -8.89937   54.49417   17.12338   59.51839   -8.82942
   6.94389   55.53348   -7.23144   50.85050   15.03175   55.61355   -7.22452
   6.95992   51.57950   -5.20560   46.85026   14.43485   51.62244   -5.25980
   6.97595   47.75682   -2.75913   43.04087   15.14156   47.73437   -2.82105
   6.99198   44.21227    0.08886   39.73552   16.85835   44.15314    0.06785
   7.00802   41.06272    3.27661   37.07138   19.27286   41.01562    3.30469
   7.02405   38.37954    6.71468   35.06942   22.15821   38.37513    6.76414
   7.04008   36.19390   10.28037   33.70630   25.32647   36.22939   10.31435
   7.05611   34.49686   13.88220   32.93830   28.67204   34.54416   13.87942
   7.07214   33.25915   17.44121   32.72581   32.13837   33.28563   17.40658
   7.08818   32.44229   20.88036   33.05641   35.64565   32.43130   20.83960
   7.10421   31.99647   24.15249   33.93110   39.16302   31.95728   24.13377
   7.12024   31.86793   27.22981   35.37712   42.64473   31.82933   27.24546
   7.13627   32.01071   30.08967   37.44021   46.02409   32.00099   30.12689
   7.15230   32.39408   32.71124   40.17495   49.18925   32.41922   32.74150
   7.16834   32.99815   35.06093   43.62116   51.97442   33.03686   35.06195
   7.18437   33.78355   37.09478   47.75814   54.18294   33.80564   37.06864
   7.20040   34.66035   38.73524   52.47284   55.54076   34.65211   38.70427
   7.21643   35.46099   39.95454   57.49676   55.82010   35.43342   39.94110
   7.23246   35.97717   40.83331   62.41870   54.91598   35.95306   40.84315
   7.24850   36.06034   41.57813   66.79164   52.92619   36.05461   41.59933
   7.26453   35.71925   42.46921   70.29269   50.14714   35.73037   42.48586
   7.28056   35.13071   43.74339   72.78286   47.02438   35.14757   43.74725
   7.29659   34.55884   45.49214   74.33627   43.93783   34.57131   45.48486
   7.31262   34.25041   47.68205   75.14969   41.24472   34.25409   47.67010
   7.32866   34.39103   50.19114   75.58990   39.18584   34.38658   50.18066
   7.34469   35.10085   52.88300   76.14778   37.82392   35.09146   52.87781
   7.36072   36.46912   55.57176   77.34084   36.86253   36.45893   55.57281
   7.37675   38.55499   58.06461   79.44516   35.75577   38.54762   58.07197
   7.39279   41.38242   60.13641   82.34250   33.80242   41.38138   60.14676
   7.40882   44.91343   61.48895   85.45907   30.34796   44.92022   61.49899
   7.42485   48.97659   61.79402   87.81200   25.15810   48.98978   61.79777
   7.44088   53.19994   60.74451   88.37479   18.64368   53.21361   60.73729
   7.45691   56.99425   58.19027   86.57705   11.83791   56.99801   58.17424
   7.47295   59.68005   54.28279   82.62654    5.91267   59.66792   54.26731
   7.48898   60.73061   49.54145   77.30918    1.64511   60.70876   49.53992
   7.50501   59.97877   44.70421   71.51421   -0.81756   59.96434   44.72023
   7.52104   57.62809   40.45236   65.86292   -1.76588   57.63323   40.47345
   7.53707   54.10587   37.24181   60.63860   -1.61270   54.12491   37.25230
   7.55311   49.90715   35.31574   55.89392   -0.64526   49.92484   35.30952
   7.56914   45.52305   34.66974   51.62023    0.94267   45.52827   34.65344
   7.58517   41.34549   35.13716   47.80457    3.02224   41.33725   35.12342
   7.60120   37.62029   36.46066   44.43402    5.52771   37.60573   36.45672
   7.61723   34.44924   38.37175   41.50831    8.42513   34.43691   38.37843
   7.63327   31.83035   40.63168   39.05809   11.63132   31.82626   40.64393
   7.64930   29.69567   43.07692   37.10297   15.10528   29.70068   43.08829
   7.66533   27.95302   45.61419   35.65490   18.79058   27.96347   45.61924
   7.68136   26.52023   48.19884   34.71791   22.61372   26.52997   48.19646
   7.69739   25.34258   50.82872   34.28637   26.52900   25.34700   50.82142
   7.71343   24.39736   53.51406   34.35712   30.50898   24.39520   53.50636
   7.72946   23.68237   56.25744   34.94102   34.52376   23.67539   56.25320
   7.74549   23.20303   59.04336   36.06915   38.52975   23.19438   59.04428
   7.76152   22.96181   61.85982   37.78638   42.49809   22.95468   61.86591
   7.77755   22.95877   64.69531   40.15742   46.37502   22.95576   64.70475
   7.79359   23.19497   67.52676   43.27060   50.04010   23.19758   67.53685
   7.80962   23.67009   70.33688   47.20842   53.34212   23.67819   70.34396
   7.82565   24.38362   73.10860   52.03355   56.02863   24.39451   73.10938
   7.84168   25.33560   75.82795   57.71808   57.76593   25.34403   75.82130
   7.85772   26.53376   78.47456   64.06507   58.12526   26.53382   78.46319
   7.87375   27.99747   81.02937   70.58742   56.70198   27.98638   81.02001
   7.88978   29.75808   83.45660   76.47148   53.29991   29.73939   83.45750
   7.90581   31.84957   85.65439   80.76385   48.14272   31.83281   85.66902
   7.92184   34.26084   87.49814   82.71995   42.09169   34.25642   87.52266
   7.93788   36.89455   88.82910   82.23647   36.39210   36.90818   88.85280
   7.95391   39.52801   89.51558   79.95725   32.11075   39.55506   89.52499
   7.96994   41.82622   89.54679   76.90793   29.75416   41.85049   89.53394
   7.98597   43.44371   89.13319   74.05612   29.20958   43.44503   89.10471
   8.00200   44.20995   88.67345   72.05149   29.95967   44.17955   88.65093
   8.01804   44.23663   88.61949   71.16313   31.38422   44.18760   88.62673
   8.03407   43.86003   89.27866   71.35940   32.93684   43.82202   89.32349
   8.05010   43.47100   90.73090   72.41886   34.26906   43.47083   90.79640
   8.06613   43.38067   92.87136   74.11033   35.21284   43.42176   92.92473
   8.08216   43.77380   95.52721   76.32945   35.71210   43.82734   95.54272
   8.09820   44.74158   98.52473   79.09862   35.69785   44.75657   98.51409
    8.1142    46.3118   101.7057    82.4529    34.8906    46.2658   101.7437
    8.1303    48.3616   105.0364    86.1980    32.8566    48.4386   105.1485
    8.1463    51.1830   108.5983    89.7617    29.2035    51.3758   108.6263
    8.1623    54.9992   112.1671    92.2567    23.8454    55.1667   112.0335
    8.1784    59.8893   115.4242    92.7653    17.2694    59.8722   115.1943
    8.1944    65.7549   118.0659    90.7923    10.5181    65.5344   117.9247
    8.2104    72.4454   119.9217    86.5518     4.8078    72.2127   120.0195
    8.2265    79.9995   120.9059    80.8615     0.9497    79.9932   121.1842
    8.2425    88.6385   120.7348    74.6874    -0.8602    88.8984   120.9387
    8.2585    98.3505   118.6898    68.7605    -0.8169    98.6661   118.5996
    8.2745   108.4804   113.7530    63.5395     0.6633   108.5662   113.4013
    8.2906   117.5846   105.2101    59.2635     3.1586   117.3252   104.9005
    8.3066   123.7680    93.4234    56.0298     6.3244   123.3870    93.4938
    8.3226   125.6048    80.2103    53.8579     9.8547   125.5401    80.6405
    8.3387   123.2611    68.0566    52.7237    13.4312   123.6447    68.3484
    8.3547   118.3390    58.4835    52.5307    16.8289   118.6861    58.2706
    8.3707   112.2847    51.4528    53.1409    19.8504   112.2219    51.0732
    8.3868   105.9051    46.6092    54.3914    22.3380   105.6573    46.4989
    8.4028   100.0089    43.6354    56.1237    24.1753    99.8778    43.7589
   8.41884   95.13731   41.76446   58.18782   25.28087   95.17382   41.90446
   8.43487   91.18877   40.05178   60.41316   25.52678   91.29626   40.09760
   8.45090   87.51237   37.90942   62.51558   24.79132   87.59927   37.86844
   8.46693   83.31184   35.36428   64.05512   23.06454   83.34523   35.28982
   8.48297   78.10644   32.97066   64.52785   20.57081   78.09824   32.90828
   8.49900   71.96889   31.43067   63.57682   17.83837   71.94659   31.39505
   8.51503   65.38386   31.20281   61.21448   15.57082   65.36687   31.18783
   8.53106   58.92476   32.33792   57.84557   14.38396   58.91987   32.33294
   8.54709   53.00550   34.61261   54.08862   14.52642   53.01295   34.60733
   8.56313   47.83050   37.69529   50.50645   15.90837   47.84692   37.68428
   8.57916   43.43577   41.29449   47.46209   18.28497   43.45770   41.27472
   8.59519   39.76916   45.18586   45.13950   21.35770   39.79393   45.15530
   8.61122   36.74563   49.20842   43.60828   24.83714   36.77055   49.16542
   8.62725   34.26965   53.27158   42.87196   28.49303   34.29183   53.21331
   8.64329   32.25422   57.32892   42.89987   32.15481   32.26926   57.25039
   8.65932   30.63027   61.34833   43.65302   35.63860   30.62998   61.23947
   8.67535   29.34714   65.34865   45.06945   38.74462   29.31184   65.16497
   8.69138   28.66653   69.05763   47.01199   41.32212   28.26190   69.02890
   8.70741   27.39440   72.64893   49.27083   43.16973   27.43816   72.83346
   8.72345   26.81495   76.57856   51.52043   44.18759   26.80836   76.58430
   8.73948   26.38611   80.29670   53.36396   44.48383   26.34768   80.30028
   8.75551   26.08897   83.97186   54.49707   44.30944   26.04218   83.99250
   8.77154   25.92035   87.63497   54.78897   44.07100   25.88345   87.67319
   8.78757   25.88408   91.29897   54.31831   44.15613   25.86731   91.34526
   8.80361   25.98467   94.96906   53.30367   44.89296   25.98919   95.01101
   8.81964   26.22249   98.64500   52.05953   46.47959   26.24203   98.67203
    8.8357    26.5936   102.3165    50.9404    48.9474    26.6164   102.3237
    8.8517    27.0846   105.9777    50.2532    52.2223    27.0972   105.9676
    8.8677    27.6700   109.6336    50.2241    56.1566    27.6638   109.6180
    8.8838    28.3215   113.2887    51.0158    60.5530    28.2991   113.2814
    8.8998    29.0101   116.9874    52.7370    65.2493    28.9844   116.9973
    8.9158    29.7318   120.7797    55.4899    70.0799    29.7174   120.8026
    8.9319    30.5119   124.7168    59.3983    74.8400    30.5139   124.7422
    8.9479    31.3972   128.8316    64.5964    79.2891    31.4116   128.8484
    8.9639    32.4365   133.1423    71.2044    83.1058    32.4541   133.1459
    8.9800    33.6744   137.6471    79.2922    85.8081    33.6870   137.6389
    8.9960    35.1481   142.3380    88.7465    86.7553    35.1503   142.3229
    9.0120    36.8894   147.2076    99.1063    85.1644    36.8786   147.1934
    9.0281    38.9257   152.2517   109.3804    80.2941    38.9042   152.2458
    9.0441    41.2852   157.4594   118.0743    71.7994    41.2600   157.4682
    9.0601    43.9920   162.8314   123.4554    60.3049    43.9758   162.8570
    9.0762    47.0733   168.3837   124.2744    47.5756    47.0804   168.4167
    9.0922    50.5786   174.1436   120.5043    35.9217    50.6123   174.1667
    9.1082    54.5987   180.1423   113.3839    27.1684    54.6449   180.1328
    9.1242    59.2692   186.3939   104.7044    22.0268    59.2923   186.3480
    9.1403    64.7495   192.8694    96.0139    20.2165    64.7221   192.8092
    9.1563    71.2019   199.4951    88.2815    20.9098    71.1277   199.4668
    9.1723    78.7778   206.1615    81.8769    23.2313    78.7042   206.2055
    9.1884    87.6442   212.7254    76.7677    26.4703    87.6357   212.8343
    9.2044    98.0189   218.9731    72.7097    30.1739    98.1026   219.0670
    9.2204   110.1758   224.5142    69.4199    34.1411   110.3073   224.4890
    9.2365   124.3893   228.6651    66.7001    38.3544   124.4630   228.5060
    9.2525   140.7637   230.4410    64.4822    42.8522   140.6818   230.2709
    9.2685   158.9176   228.6771    62.7822    47.6170   158.7028   228.6705
    9.2846   177.6788   222.2818    61.5853    52.6321   177.5189   222.4964
    9.3006   195.0403   210.6763    60.8446    57.8646   195.1375   210.9362
    9.3166   208.5801   194.3458    60.5148    63.3138   208.8814   194.3595
    9.3327   216.2072   175.1021    60.5891    69.0560   216.3884   174.8131
    9.3487   217.0397   155.8344    61.1375    75.1654   216.8920   155.5442
    9.3647   211.9563   139.5838    62.2868    81.6572   211.6512   139.5908
    9.3808   203.3269   128.3372    64.1722    88.4946   203.1778   128.6012
    9.3968   193.9817   122.3922    66.9101    95.6108   194.0959   122.6437
    9.4128   186.1128   120.6365    70.6126   102.8934   186.3501   120.6732
    9.4289   180.8231   121.2771    75.3783   110.1987   180.9776   121.1008
    9.4449   178.1346   122.4643    81.2780   117.3439   178.0943   122.2305
    9.4609   177.1745   122.7508    88.3160   124.1063   176.9801   122.6428
    9.4770   176.5180   121.4991    96.3945   130.2301   176.3251   121.6011
    9.4930   174.7362   119.1506   105.2891   135.4920   174.7021   119.3805
    9.5090   171.0468   117.0241   114.6996   139.8027   171.2033   117.1905
    9.5251   165.7231   116.5674   124.3997   143.2436   165.9369   116.5281
    9.5411   159.7789   118.6077   134.2904   146.0185   159.8621   118.3927
    9.5571   154.3115   123.1660   144.4077   148.2847   154.1851   122.9569
    9.5731   150.0416   129.8069   154.8149   150.1062   149.8107   129.7891
    9.5892   147.3416   138.0622   165.6246   151.5100   147.2078   138.2615
    9.6052   146.4329   147.6146   176.9765   152.4653   146.5199   147.8605
    9.6212   147.5726   158.1959   188.9880   152.7513   147.8070   158.2637
    9.6373   151.0056   169.4306   201.5686   151.9942   151.1830   169.2440
    9.6533   156.8702   180.7858   214.3407   150.0024   156.8263   180.4967
    9.6693   165.1206   191.6459   226.8335   147.0644   164.8685   191.5291
    9.6854   175.5760   201.4812   238.9635   143.8250   175.3235   201.6920
    9.7014   188.0022   209.9788   251.1609   140.7811   188.0193   210.3413
    9.7174   202.1942   216.9268   264.0747   137.9698   202.5345   217.0400
    9.7335   217.9738   221.9781   278.2635   135.1432   218.2979   221.6618
    9.7495   234.9176   224.7025   294.2859   132.0499   234.7984   224.2913
    9.7655   252.1875   225.0267   312.8937   128.2360   251.7057   225.0345
    9.7816   268.9915   223.5575   334.9785   122.5138   268.7445   224.0051
    9.7976   285.3255   221.2096   361.0798   112.7279   285.6527   221.5270
    9.8136   302.0255   218.3928   390.4935    96.0611   302.5044   218.1703
    9.8297   320.0566   214.7128   420.8267    69.9392   320.0578   214.2560
    9.8457   339.9717   209.2778   447.9016    32.9307   339.5175   209.1840
    9.8617   361.9612   200.8861   466.7590   -14.2173   361.6726   201.2372
    9.8778   385.8031   187.7852   472.7267   -68.1307   386.0316   188.0818
    9.8938   410.0727   167.7685   463.0914  -122.9376   410.4533   167.6282
    9.9098   431.3793   139.2750   438.9306  -171.8186   431.3907   138.9383
    9.9259   444.9916   103.1599   404.7669  -209.7359   444.6952   103.1087
    9.9419   447.0015    63.4101   366.5450  -235.1201   446.8473    63.6512
    9.9579   436.5068    25.7830   329.1835  -249.4796   436.6487    25.9349
    9.9739   415.9918    -4.6699   295.5964  -255.9091   416.1452    -4.7753
    9.9900   389.6257   -25.2219   266.5023  -257.3886   389.5956   -25.3717
   10.0060   361.6974   -35.3748   241.4518  -256.0633   361.5865   -35.3802
   10.0220   335.7060   -36.1913   219.6826  -253.1293   335.6704   -36.1024
   10.0381   314.1232   -29.6123   200.6461  -249.1774   314.1683   -29.5620
   10.0541   298.2518   -17.8522   183.9196  -244.4574   298.2931   -17.8811
   10.0701   288.6425    -2.9972   169.2743  -239.4338   288.6323    -3.0446
   10.0862   285.3170    13.1810   156.2964  -234.4234   285.2832    13.1767
   10.1022   287.9976    29.1729   144.5346  -229.5039   287.9833    29.2034
   10.1182   296.2533    43.5516   133.7081  -224.5962   296.2671    43.5660
   10.1343   309.4363    54.8550   123.7393  -219.6469   309.4484    54.8397
   10.1503   326.5057    61.6895   114.5831  -214.6960   326.4977    61.6768
   10.1663   345.8490    63.0490   106.0797  -209.7552   345.8371    63.0543
   10.1824   365.3662    58.7792    98.0500  -204.8179   365.3648    58.7856
   10.1984   382.9396    49.9406    90.4106  -199.8057   382.9417    49.9382
   10.2144   397.2809    38.6712    83.1842  -194.4727   397.2791    38.6681
   10.2305   408.6971    27.4179    76.5372  -188.7799   408.6925    27.4176
   10.2465   419.0729    17.8637    70.6320  -182.8242   419.0709    17.8640
   10.2625   431.1089    10.0504    65.5469  -176.7355   431.1050    10.0488
   10.2786   447.1711     2.0092    61.2827  -170.6310   447.1684     2.0083
   10.2946   468.2758    -9.8525    57.8070  -164.6678   468.2727    -9.8536
   10.3106   493.1667   -29.6759    55.0707  -159.0247   493.1615   -29.6777
   10.3267   517.8013   -60.5580    52.9735  -153.7405   517.7955   -60.5598
   10.3427   536.3217  -102.6902    51.4114  -148.9562   536.3145  -102.6929
   10.3587   543.3409  -152.5447    50.2262  -144.7745   543.3360  -152.5454
   10.3747   536.5002  -204.2021    49.1946  -141.2188   536.4946  -204.2022
   10.3908   517.0946  -252.2017    48.0633  -138.2087   517.0879  -252.2025
   10.4068   488.2476  -293.4323    46.6433  -135.5938   488.2341  -293.4308
   10.4228   452.8712  -326.6422    44.8700  -133.0647   452.8658  -326.6402
   10.4389   413.3144  -351.1713    42.8462  -130.3962   413.3103  -351.1692
   10.4549   372.0190  -366.6585    40.7555  -127.4727   372.0131  -366.6547
   10.4709   331.5728  -373.5216    38.7751  -124.3299   331.5661  -373.5163
   10.4870   294.0166  -372.9818    37.0036  -120.9613   294.0125  -372.9778
   10.5030   260.7012  -366.9164    35.4971  -117.4805   260.6978  -366.9127
   10.5190   232.0641  -357.1557    34.2667  -113.9617   232.0605  -357.1510
   10.5351   207.9612  -345.2130    33.3036  -110.4661   207.9577  -345.2079
   10.5511   187.9084  -332.1397    32.5803  -106.9650   187.9058  -332.1355
   10.5671   171.3618  -318.6835    32.0889  -103.5541   171.3601  -318.6805
   10.5832   157.7969  -305.3350    31.8049  -100.2118   157.7947  -305.3309
   10.5992   146.7036  -292.2667    31.7065   -96.9275   146.7024  -292.2643
   10.6152   137.7336  -279.6104    31.7749   -93.7153   137.7322  -279.6074
   10.6313   130.6452  -267.4115    31.9934   -90.5834   130.6434  -267.4077
   10.6473   125.3002  -255.7163    32.3467   -87.4888   125.2987  -255.7129
   10.6633   121.6126  -244.5606    32.8346   -84.3819   121.6110  -244.5571
   10.6794   119.5705  -234.1005    33.4876   -81.2916   119.5696  -234.0983
   10.6954   119.1393  -224.4751    34.3293   -78.1369   119.1380  -224.4722
   10.7114   120.2836  -215.9648    35.4015   -74.9279   120.2824  -215.9622
   10.7275   122.8759  -208.9550    36.7463   -71.6655   122.8748  -208.9527
   10.7435   126.5870  -203.8901    38.4089   -68.3503   126.5857  -203.8875
   10.7595   130.7450  -201.0616    40.4360   -64.9556   130.7440  -201.0598
   10.7756   134.4494  -200.5563    42.8936   -61.4883   134.4486  -200.5548
   10.7916   136.7663  -201.8825    45.8679   -57.9684   136.7649  -201.8800
   10.8076   137.2055  -204.0388    49.4577   -54.3707   137.2039  -204.0360
   10.8236   135.9803  -205.8355    53.7986   -50.6979   135.9792  -205.8335
   10.8397   133.9357  -206.4903    59.0861   -47.0200   133.9347  -206.4884
   10.8557   132.1060  -205.7812    65.5588   -43.3570   132.1049  -205.7792
   10.8717   131.4163  -203.9697    73.5577   -39.8108   131.4152  -203.9676
   10.8878   132.6106  -201.5899    83.5482   -36.5173   132.6095  -201.5879
   10.9038   136.3518  -199.2912    96.2387   -33.7857   136.3504  -199.2889
   10.9198   143.4469  -197.8674   112.6829   -32.0566   143.4455  -197.8650
   10.9359   155.2427  -198.4938   134.6817   -32.1235   155.2416  -198.4921
   10.9519   174.5443  -203.3619   165.8929   -35.4511   174.5432  -203.3604
   10.9679   209.3728  -218.2722   216.5681   -44.9471   209.3715  -218.2708
   10.9840   324.4382  -287.3513   373.2958   -68.4939   324.4357  -287.3497
   11.0000     5.3255  -484.1396    10.0645  -491.8513     5.3254  -484.1353
# 
# 11/29/2016 at 12:56 YAMBO @ anomaly [start]
# 11/29/2016 at 12:57                 [end]
#  
# Timing   [Min/Max/Average]: 16s/16s/16s
#
# .-Input file : INPUTS/03_ALDA_haydo
# | optics                       # [R OPT] Optics
# | bse                          # [R BSE] Bethe Salpeter Equation.
# | bsk                          # [R BSK] Bethe Salpeter Equation kernel
# | bss                          # [R BSS] Bethe Salpeter Equation solver
# | tddft                        # [R   K] Use TDDFT kernel
# | BoseTemp= 0.000000     eV    # Bosonic Temperature
# | NonPDirs= "XYZ"              # [X/BSS] Non periodic chartesian directions (X,Y,Z,XY...)
# | BSEmod= "resonant"           # [BSE] resonant/retarded/coupling
# | BSKmod= "ALDA"               # [BSE] IP/Hartree/HF/ALDA/SEX/BSfxc
# | BSSmod= "h"                  # [BSS] (h)aydock/(d)iagonalization/(i)nversion/(t)ddft`
# | BSENGexx= 1535         mHa   # [BSK] Exchange components
# | % BEnRange
# |   3.00000 | 11.00000 | eV    # [BSS] Energy range
# | %
# | % BDmRange
# |   0.10000 |  0.10000 | eV    # [BSS] Damping range
# | %
# | BEnSteps=  500               # [BSS] Energy steps
# | % BLongDir
# | 0.5774E-5 |0.5774E-5 |0.5774E-5 |        # [BSS] [cc] Electric Field
# | %
# | % BSEBands
# |   14 |  34 |                 # [BSK] Bands range
# | %
# | BSHayTrs=   0.0050           # [BSS] Relative [o/o] Haydock treshold. Strict(>0)/Average(<0)
# | BSHayTer                     # [BSS] Terminate Haydock continuos fraction
