#                                                           
# :::   :::   :::     ::::    ::::  :::::::::   ::::::::    
# :+:   :+: :+: :+:   +:+:+: :+:+:+ :+:    :+: :+:    :+:   
#  +:+ +:+ +:+   +:+  +:+ +:+:+ +:+ +:+    +:+ +:+    +:+   
#   +#++: +#++:++#++: +#+  +:+  +#+ +#++:++#+  +#+    +:+   
#    +#+  +#+     +#+ +#+       +#+ +#+    +#+ +#+    +#+   
#    #+#  #+#     #+# #+#       #+# #+#    #+# #+#    #+#   
#    ###  ###     ### ###       ### #########   ########    
#                                                           
#                                                           
#        Version 4.1.1 Revision 13960 Hash bb9ad93          
#                        MPI Build                          
#                http://www.yambo-code.org                  
#
# Polarizability ( -<<X>> ) [volume @ Q(1) [q->0 direction]0.5774E-5 0.5774E-5 0.5774E-5
#
#
# - Energies      are GoWo Plasmon Pole appox.
# - Wavefunctions are Teter 93(XC)
#
# - The Green`s function is Retarded -
# - Using the Length Gauge -
# - [r,Vnl] *is* included -
#
#   BSK|Identifier              :6387
#      |Dimension               :110
#      |Bands                   :14 - 34
#      |Exchange           [res]: yes
#      |Correlation        [res]: yes
#      |Kernel`s coupling       : yes
#      |Exchange           [cpl]: yes
#      |Correlation        [cpl]: yes
#      |W interaction is bare   : no
#      |ALDA kernel in R-space  : no
#      |RL vectors    [exchange]:367
#      |RL vectors [correlation]:87
#      |E/h energy range    [ev]:-1.000000 - -1.000000
#      |Coupling range     [o/o]: 100.0000 -  100.0000
#    W |Interaction is diagonal : no
#      |Matrix size             :367
#      |Bands                   :1 - 50
#      |e/h energy range    [ev]:-1.000000 - -1.000000
#      |Poles              [o/o]: 100.0000
#      |RL vectors in the sum   :17279
#      |[r,Vnl] included        : yes
#      |Field direction         :0.1000E-4  0.000000  0.000000
#      |Coulomb Cutoff          :none
#      |xc-Kernel               :none
#   RIM|RL components      [col]:0
#      |Random points      [col]:0
#
#  E/ev[1]    ALPHA-Im[2]ALPHA-Re[3]ALPHAo-Im[4ALPHAo-Re[5]
#
   5.00000    3.87302   72.92511    0.63240   55.31034
   5.02004    3.78945   73.22643    0.63843   55.43755
   5.04008    3.69299   73.60272    0.64454   55.56598
   5.06012    3.60567   74.03780    0.65072   55.69559
   5.08016    3.53296   74.51775    0.65698   55.82653
   5.10020    3.47629   75.03674    0.66331   55.95867
   5.12024    3.43893   75.59113    0.66973   56.09210
   5.14028    3.42431   76.17617    0.67623   56.22687
   5.16032    3.43373   76.78640    0.68281   56.36288
   5.18036    3.46661   77.41782    0.68947   56.50021
   5.20040    3.52177   78.06808    0.69623   56.63895
   5.22044    3.59841   78.73618    0.70306   56.77900
   5.24048    3.69656   79.42231    0.70999   56.92043
   5.26052    3.81740   80.12695    0.71701   57.06327
   5.28056    3.96337   80.85065    0.72413   57.20752
   5.30060    4.13847   81.59357    0.73134   57.35317
   5.32064    4.34849   82.35471    0.73864   57.50034
   5.34068    4.60134   83.13088    0.74605   57.64893
   5.36072    4.90701   83.91521    0.75355   57.79904
   5.38076    5.27679   84.69357    0.76116   57.95063
   5.40080    5.72001   85.44118    0.76887   58.10375
   5.42084    6.23570   86.11858    0.77669   58.25845
   5.44088    6.79668   86.67397    0.78462   58.41470
   5.46092    7.33083   87.06374    0.79265   58.57253
   5.48096    7.72424   87.29800    0.80081   58.73203
   5.50100    7.87848   87.47753    0.80907   58.89314
   5.52104    7.78990   87.75480    0.81746   59.05590
   5.54108    7.55380   88.23760    0.82597   59.22038
   5.56112    7.28771   88.94287    0.83460   59.38656
   5.58116    7.06991   89.83007    0.84335   59.55447
   5.60120    6.93297   90.84777    0.85224   59.72419
   5.62124    6.88206   91.95624    0.86125   59.89563
   5.64128    6.91164   93.13063    0.87040   60.06890
   5.66132    7.01451   94.35726    0.87969   60.24403
   5.68136    7.18556   95.62910    0.88911   60.42103
   5.70140    7.42293   96.94230    0.89868   60.59992
   5.72144    7.72817   98.29344    0.90840   60.78074
   5.74148    8.10550   99.67654    0.91826   60.96353
    5.7615     8.5599   101.0805     0.9283    61.1483
    5.7816     9.0926   102.4858     0.9384    61.3351
    5.8016     9.6912   103.8653     0.9488    61.5239
    5.8216    10.3187   105.1941     0.9593    61.7148
    5.8417    10.9112   106.4760     0.9699    61.9078
    5.8617    11.4080   107.7695     0.9808    62.1030
    5.8818    11.8029   109.1725     0.9918    62.3003
    5.9018    12.1569   110.7640     1.0030    62.4999
    5.9218    12.5554   112.5663     1.0143    62.7018
    5.9419    13.0659   114.5597     1.0259    62.9058
    5.9619    13.7300   116.7101     1.0376    63.1123
    5.9820    14.5725   118.9827     1.0496    63.3211
    6.0020    15.6085   121.3419     1.0617    63.5323
    6.0220    16.8419   123.7480     1.0741    63.7460
    6.0421    18.2569   126.1603     1.0866    63.9621
    6.0621    19.8149   128.5520     1.0994    64.1808
    6.0822    21.4664   130.9231     1.1124    64.4020
    6.1022    23.1628   133.2956     1.1256    64.6259
    6.1222    24.8463   135.7179     1.1391    64.8524
    6.1423    26.4669   138.3050     1.1528    65.0817
    6.1623    28.0613   141.2362     1.1667    65.3137
    6.1824    29.7943   144.6602     1.1809    65.5485
    6.2024    31.8891   148.6141     1.1953    65.7861
    6.2224    34.5427   153.0436     1.2100    66.0267
    6.2425    37.9059   157.8595     1.2250    66.2702
    6.2625    42.1119   162.9684     1.2403    66.5168
    6.2826    47.3053   168.2576     1.2558    66.7664
    6.3026    53.6336   173.5571     1.2716    67.0191
    6.3226    61.1926   178.6304     1.2877    67.2751
    6.3427    69.9852   183.2396     1.3042    67.5343
    6.3627    79.9864   187.2292     1.3209    67.7968
    6.3828    91.2807   190.4784     1.3380    68.0626
    6.4028   104.0719   192.7174     1.3554    68.3319
    6.4228   118.5258   193.4098     1.3732    68.6048
    6.4429   134.5574   191.7421     1.3913    68.8811
    6.4629   151.5371   186.8060     1.4097    69.1612
    6.4830   168.2717   178.1565     1.4286    69.4450
    6.5030   183.7001   166.0875     1.4478    69.7325
    6.5230   197.3166   150.8709     1.4674    70.0240
    6.5431   208.2535   132.2935     1.4874    70.3193
    6.5631   214.6916   110.8630     1.5079    70.6187
    6.5832   215.2777    88.7447     1.5287    70.9223
    6.6032   210.4429    68.4747     1.5500    71.2300
    6.6232   201.5899    51.6131     1.5718    71.5421
    6.6433   190.2215    39.1097     1.5940    71.8585
    6.6633   178.2812    31.4834     1.6168    72.1793
    6.6834   167.9346    28.1348     1.6400    72.5049
    6.7034   160.6032    27.4183     1.6637    72.8350
    6.7234   156.6489    27.4612     1.6880    73.1699
    6.7435   155.7156    26.5732     1.7128    73.5097
    6.7635   156.7665    23.2298     1.7382    73.8545
    6.7836   157.8288    16.5002     1.7641    74.2045
    6.8036   156.4355     7.0050     1.7907    74.5597
    6.8236   151.2095    -2.8813     1.8179    74.9202
    6.8437   143.0341   -10.6505     1.8457    75.2861
    6.8637   134.0723   -15.5312     1.8742    75.6578
    6.8838   125.8547   -18.4783     1.9033    76.0351
    6.9038   118.4758   -20.8423     1.9332    76.4183
    6.9238   111.0469   -23.2046     1.9638    76.8075
    6.9439   102.7482   -25.0144     1.9952    77.2029
   6.96393   93.70678  -25.22172    2.02738   77.60464
   6.98397   84.88910  -23.27582    2.06035   78.01286
   7.00401   77.33342  -19.44742    2.09417   78.42767
   7.02405   71.65096  -14.48254    2.12886   78.84934
   7.04409   67.99313   -9.21829    2.16445   79.27796
   7.06413   66.17253   -4.39576    2.20098   79.71378
   7.08417   65.76492   -0.59175    2.23848   80.15697
   7.10421   66.17934    1.82739    2.27700   80.60769
   7.12425   66.71851    2.74933    2.31656   81.06614
   7.14429   66.66665    2.39348    2.35721   81.53259
   7.16433   65.50417    1.36151    2.39899   82.00723
   7.18437   63.20513    0.44702    2.44195   82.49030
   7.20441   60.25076    0.15952    2.48613   82.98197
   7.22445   57.15538    0.45334    2.53158   83.48257
   7.24449   54.01791    1.04188    2.57836   83.99229
   7.26453   50.62576    1.90337    2.62652   84.51143
   7.28457   46.92482    3.35743    2.67612   85.04030
   7.30461   43.22579    5.68784    2.72722   85.57910
   7.32465   39.96611    8.86649    2.77988   86.12822
   7.34469   37.44120   12.62803    2.83419   86.68793
   7.36473   35.74946   16.64815    2.89020   87.25858
   7.38477   34.84536   20.63576    2.94801   87.84045
   7.40481   34.57658   24.36027    3.00768   88.43397
   7.42485   34.69374   27.68964    3.06932   89.03947
   7.44489   34.89686   30.66608    3.13303   89.65741
   7.46493   34.97968   33.54409    3.19890   90.28809
   7.48497   34.98570   36.66756    3.26706   90.93202
   7.50501   35.18635   40.25320    3.33762   91.58961
   7.52505   35.90752   44.30887    3.41073   92.26137
   7.54509   37.41196   48.70684    3.48653   92.94774
   7.56513   39.89981   53.26887    3.56520   93.64928
   7.58517   43.55292   57.78429    3.64691   94.36652
   7.60521   48.56726   61.97441    3.73189   95.10004
   7.62525   55.13764   65.41360    3.82039   95.85043
   7.64529   63.35858   67.44524    3.91269   96.61833
   7.66533   73.01284   67.17243    4.00914   97.40434
   7.68537   83.33201   63.64248    4.11017   98.20912
   7.70541   92.90166   56.23182    4.21626   99.03326
   7.72545   99.83390   45.08363    4.32804   99.87740
    7.7455   102.2347    31.5192     4.4463   100.7419
    7.7655    99.1905    18.0920     4.5718   101.6270
    7.7856    91.6768     7.5075     4.7055   102.5323
    7.8056    82.0154     1.0920     4.8478   103.4568
    7.8257    72.3898    -1.4840     4.9985   104.3988
    7.8457    64.0185    -1.3684     5.1549   105.3563
    7.8657    57.2159     0.2862     5.3121   106.3292
    7.8858    51.7932     2.7162     5.4643   107.3214
    7.9058    47.4794     5.5785     5.6087   108.3409
    7.9259    44.1670     8.7261     5.7477   109.3961
    7.9459    41.8768    11.9564     5.8869   110.4921
    7.9659    40.5815    14.9314     6.0320   111.6304
    7.9860    40.0558    17.2551     6.1871   112.8106
    8.0060    39.8099    18.6487     6.3543   114.0316
    8.0261    39.1883    19.1931     6.5346   115.2931
    8.0461    37.7229    19.4272     6.7280   116.5952
    8.0661    35.4644    20.0426     6.9347   117.9390
    8.0862    32.8670    21.4270     7.1549   119.3262
    8.1062    30.3876    23.5654     7.3890   120.7587
    8.1263    28.2714    26.2614     7.6374   122.2388
    8.1463    26.5959    29.3352     7.9009   123.7691
    8.1663    25.3793    32.6698     8.1803   125.3522
    8.1864    24.6305    36.1844     8.4768   126.9912
    8.2064    24.3565    39.8167     8.7915   128.6892
    8.2265    24.5682    43.5182     9.1258   130.4498
    8.2465    25.2907    47.2487     9.4813   132.2767
    8.2665    26.5716    50.9636     9.8596   134.1738
    8.2866    28.4857    54.5953    10.2629   136.1458
    8.3066    31.1331    58.0282    10.6932   138.1972
    8.3267    34.6269    61.0605    11.1531   140.3333
    8.3467    39.0460    63.3500    11.6454   142.5594
    8.3667    44.3121    64.3736    12.1734   144.8821
    8.3868    49.9740    63.5005    12.7404   147.3078
    8.4068    55.0348    60.3228    13.3508   149.8438
    8.4269    58.1545    55.1927    14.0091   152.4981
    8.4469    58.4218    49.4249    14.7207   155.2798
    8.4669    56.0460    44.6280    15.4917   158.1982
    8.4870    52.0949    41.7501    16.3293   161.2641
    8.5070    47.6693    40.8914    17.2417   164.4893
    8.5271    43.4992    41.7359    18.2388   167.8871
    8.5471    40.0049    43.8713    19.3318   171.4714
    8.5671    37.3937    46.8802    20.5344   175.2584
    8.5872    35.7020    50.3930    21.8629   179.2659
    8.6072    34.8505    54.1437    23.3369   183.5130
    8.6273    34.7273    57.9969    24.9802   188.0207
    8.6473    35.2769    61.9161    26.8220   192.8118
    8.6673    36.5413    65.8782    28.8989   197.9104
    8.6874    38.6297    69.7955    31.2559   203.3400
    8.7074    41.6689    73.4852    33.9494   209.1219
    8.7275    45.7612    76.6422    37.0490   215.2713
    8.7475    50.8979    78.8036    40.6390   221.7902
    8.7675    56.7970    79.3811    44.8139   228.6559
    8.7876    62.7365    77.8727    49.6660   235.8097
    8.8076    67.6109    74.2614    55.2585   243.1536
    8.8277    70.3896    69.3018    61.5904   250.5714
    8.8477    70.7306    64.2960    68.5826   257.9775
    8.8677    69.1850    60.4094    76.0977   265.3641
    8.8878    66.7733    58.1143    83.9606   272.8429
    8.9078    64.3803    57.1899    92.0200   280.7317
    8.9279    62.4355    57.0645   100.3523   289.5677
    8.9479    60.8766    57.1804   109.4063   299.8837
    8.9679    59.3079    57.2978   119.8714   312.0056
    8.9880    57.3528    57.6405   132.5407   326.0984
    9.0080    55.0374    58.6819   148.3692   342.2157
    9.0281    52.7978    60.6780   168.5462   360.2146
    9.0481    51.0885    63.4602   194.4998   379.6526
    9.0681    50.0647    66.6474   227.9414   399.6733
    9.0882    49.5926    69.9663   270.9471   418.7458
    9.1082    49.4890    73.3936   325.9268   434.1473
    9.1283    49.7348    77.0260   395.2040   441.1456
    9.1483    50.4389    80.8619   479.7152   432.0393
    9.1683    51.6454    84.7747   576.1815   395.8710
    9.1884    53.2603    88.6744   672.8387   320.9889
    9.2084    55.1682    92.6221   747.1995   203.1346
    9.2285    57.3699    96.7865   773.5804    56.1192
    9.2485    60.0313   101.3366   741.0858   -88.7936
    9.2685    63.4624   106.3317   663.3165  -201.7224
    9.2886    68.0267   111.6556   566.4349  -271.3722
    9.3086    74.0665   117.0317   471.8180  -303.4889
    9.3287    81.8933   122.0097   390.0416  -309.9672
    9.3487    91.6927   125.8747   323.7125  -301.4634
    9.3687   103.2645   127.6761   271.6700  -285.3502
    9.3888   115.8141   126.5455   231.5927  -266.1965
    9.4088   128.1072   122.1525   201.1031  -246.7572
    9.4289   138.9867   114.8494   178.0357  -228.7487
    9.4489   147.7441   105.2968   160.3291  -213.2499
    9.4689   153.9092    94.0284   145.8930  -200.6863
    9.4890   156.7657    81.6040   132.8194  -190.6008
    9.5090   155.4503    69.3336   119.9738  -181.7905
    9.5291   150.0460    59.4854   107.2790  -173.0316
    9.5491   142.3978    54.0373    95.2744  -163.7126
    9.5691   135.2320    53.2808    84.4933  -153.8444
    9.5892   130.6624    55.9358    75.1814  -143.7321
    9.6092   129.6570    60.1438    67.3227  -133.7001
    9.6293   132.3357    64.0951    60.7621  -123.9763
    9.6493   138.2330    66.0387    55.3047  -114.6830
    9.6693   146.0318    64.2701    50.7692  -105.8671
    9.6894   153.1885    57.8498    47.0053   -97.5324
    9.7094   156.6198    47.8680    43.8957   -89.6612
    9.7295   154.7485    37.5583    41.3504   -82.2287
    9.7495   148.7889    30.2262    39.2987   -75.2141
    9.7695   141.5009    27.1849    37.6773   -68.6043
    9.7896   135.2259    27.8664    36.4168   -62.3889
    9.8096   131.2775    30.9705    35.4343   -56.5397
    9.8297   130.1977    35.0644    34.6499   -50.9875
    9.8497   131.8931    38.7341    34.0287   -45.6193
    9.8697   135.6340    40.8117    33.6113   -40.3196
    9.8898   140.2031    40.7176    33.4982   -35.0197
    9.9098   144.3354    38.7348    33.8078   -29.7107
    9.9299   147.3980    35.8616    34.6564   -24.4280
    9.9499   149.7307    33.0357    36.1631   -19.2393
    9.9699   152.1113    30.4312    38.4623   -14.2588
    9.9900   155.0130    27.6203    41.6993    -9.6836
   10.0100   158.5260    24.0646    45.9923    -5.8438
   10.0301   162.5200    19.1606    51.3316    -3.2406
   10.0501   166.4734    12.2344    57.4075    -2.5024
   10.0701   169.3604     2.8423    63.4509    -4.1560
   10.0902   169.7321    -8.9132    68.3102    -8.2369
   10.1102   166.0090   -21.9086    70.8822   -14.0356
   10.1303   157.5131   -33.8497    70.6537   -20.2638
   10.1503   145.2919   -42.4392    67.9794   -25.6035
   10.1703   131.3649   -46.6591    63.8453   -29.3198
   10.1904   117.5241   -46.6770    59.2472   -31.4631
   10.2104   104.9969   -43.1778    54.6813   -32.5343
  10.23046   94.54867  -37.03854   50.10790  -32.92491
  10.25050   86.53435  -29.17587   45.36638  -32.61798
  10.27054   80.98283  -20.39439   40.56908  -31.40348
  10.29058   77.74115  -11.32252   36.05217  -29.24474
  10.31062   76.57722   -2.44570   32.10014  -26.34280
  10.33066   77.19960    5.84715   28.81973  -22.97844
  10.35070   79.23592   13.27380   26.18212  -19.38458
  10.37074   82.25968   19.73463   24.10065  -15.71274
  10.39078   85.93975   25.35095   22.48043  -12.04732
  10.41082   90.19571   30.30122   21.23895   -8.42784
  10.43086   95.08163   34.57479   20.31196   -4.86724
   10.4509   100.5100    38.0209    19.6529    -1.3641
   10.4709   106.2565    40.6093    19.2305     2.0910
   10.4910   112.1801    42.4319    19.0268     5.5115
   10.5110   118.1758    43.5385    19.0358     8.9123
   10.5311   124.0490    44.0998    19.2629    12.3075
   10.5511   129.8300    44.5712    19.7254    15.7091
   10.5711   136.0743    45.2983    20.4543    19.1239
   10.5912   143.5630    46.0816    21.4959    22.5489
   10.6112   152.9056    46.2516    22.9140    25.9631
   10.6313   164.5159    44.7909    24.7892    29.3140
   10.6513   178.4584    40.0880    27.2113    32.4975
   10.6713   193.6531    29.9165    30.2523    35.3321
   10.6914   206.9822    12.5234    33.9083    37.5460
   10.7114   213.8061   -11.2630    38.0147    38.8162
   10.7315   210.7970   -37.0455    42.1998    38.8927
   10.7515   198.6265   -59.2738    45.9669    37.7339
   10.7715   180.9650   -74.7734    48.8271    35.5069
   10.7916   161.4519   -83.2694    50.3033    32.5645
   10.8116   142.4524   -85.7272    50.0184    29.5952
   10.8317   125.4515   -83.3777    48.0841    27.5669
   10.8517   111.3399   -77.5881    45.2460    27.1966
   10.8717   100.4255   -69.7129    42.4406    28.5745
  10.89178   92.56020  -60.89059   40.33683   31.34031
  10.91182   87.32066  -51.96841   39.25683   35.02504
  10.93186   84.12708  -43.50170   39.30952   39.22786
  10.95190   82.32284  -35.73586   40.51787   43.63214
  10.97194   81.29535  -28.56884   42.86977   47.95947
  10.99198   80.68282  -21.58507   46.30032   51.93824
  11.01202   80.55099  -14.29391   50.65189   55.34030
  11.03206   81.29071   -6.45063   55.71421   58.08858
  11.05210   83.32224    1.87095   61.42605   60.28431
  11.07214   86.95290   10.43661   68.06157   61.95255
  11.09218   92.42807   18.94444   76.05999   62.64709
  11.11222   99.95115   26.97565   85.50423   61.33148
   11.1323   109.5746    33.9767    95.5731    56.7481
   11.1523   121.1173    39.3996   104.3663    48.2790
   11.1723   134.2964    42.8430   109.6451    36.9033
   11.1924   148.8892    43.9117   110.3985    25.1265
   11.2124   164.5257    42.0277   107.7341    15.3999
   11.2325   180.4366    36.7059   103.9812     8.4926
   11.2525   195.7496    27.8362   100.9816     3.3194
   11.2725   209.6684    15.3305    99.0073    -2.0011
   11.2926   220.8488    -0.8542    96.7362    -8.7444
   11.3126   227.4913   -19.5472    92.2774   -16.5236
   11.3327   229.1214   -38.1832    84.7907   -23.4755
   11.3527   227.3664   -54.9167    75.1819   -27.8007
   11.3727   223.9713   -70.0324    65.1602   -28.9803
   11.3928   218.9623   -84.4614    56.0357   -27.5909
   11.4128   211.5302   -97.7571    48.3713   -24.5369
   11.4329   202.1222  -108.4196    42.2147   -20.5771
   11.4529   192.6841  -115.9895    37.3895   -16.2149
   11.4729   184.7465  -121.9419    33.6662   -11.7431
   11.4930   177.8581  -128.3111    30.8386    -7.3161
   11.5130   170.0632  -135.6536    28.7493    -3.0105
   11.5331   159.9674  -142.4800    27.2897     1.1292
   11.5531   148.1509  -146.8447    26.3852     5.0598
   11.5731   136.4052  -148.0965    25.9710     8.7229
   11.5932   126.2552  -146.9701    25.9615    12.0443
   11.6132   118.3544  -144.8331    26.2197    14.9643
   11.6333   112.4189  -143.1192    26.5654    17.5014
   11.6533   107.2679  -142.7594    26.8616    19.7957
   11.6733   101.3520  -143.5321    27.1209    22.0367
   11.6934    93.8530  -144.0881    27.4974    24.3202
   11.7134    85.2906  -143.0185    28.1694    26.5727
   11.7335    76.9044  -139.8386    29.2173    28.5755
   11.7535    69.7265  -134.9463    30.5301    30.0484
   11.7735    64.2565  -129.0709    31.7621    30.8073
   11.7936    60.5981  -122.9164    32.4411    30.9667
   11.8136    58.6420  -117.0937    32.2650    30.9902
   11.8337    58.1148  -112.1675    31.3359    31.4355
   11.8537    58.4946  -108.6464    30.0683    32.6264
   11.8737    58.9250  -106.7828    28.9175    34.5613
   11.8938    58.4011  -106.2264    28.1984    37.0244
   11.9138    56.3444  -105.9602    28.0492    39.7213
   11.9339    53.0355  -104.8682    28.4539    42.3551
   11.9539    49.3178  -102.4023    29.2480    44.6740
  11.97395   45.97794  -98.64480   30.12376   46.55818
  11.99399   43.46176  -93.95605   30.73412   48.13892
  12.01403   41.93801  -88.68777   30.92308   49.78862
  12.03407   41.44940  -83.08665   30.86291   51.87960
  12.05411   42.02078  -77.30901   30.91428   54.54440
  12.07415   43.71489  -71.46258   31.39664   57.67043
  12.09419   46.65990  -65.65624   32.48747   61.02311
  12.11423   51.06250  -60.05290   34.22669   64.34276
  12.13427   57.20279  -54.94571   36.53705   67.39082
  12.15431   65.39405  -50.85923   39.24035   69.98824
  12.17435   75.85202  -48.68060   42.07164   72.05605
  12.19439   88.39519  -49.74806   44.71183   73.69173
   12.2144   101.9245   -55.6804    46.9355    75.2512
   12.2345   113.9753   -67.5926    48.8576    77.2320
   12.2545   121.1591   -84.7694    50.9587    79.9340
   12.2745   120.9959  -104.1089    53.8031    83.2752
   12.2946   113.5979  -121.5753    57.7915    86.9140
   12.3146   101.3284  -134.3621    63.1623    90.4370
   12.3347    87.1802  -141.6975    70.1093    93.3672
   12.3547    73.4943  -144.3526    78.7789    94.9999
   12.3748    61.5215  -143.7257    88.9968    94.2631
   12.3948    51.6128  -141.1359    99.7881    89.8911
   12.4148    43.6292  -137.5381   109.0328    81.1917
   12.4349    37.2543  -133.5274   114.0552    69.2000
   12.4549    32.1591  -129.4422   113.3947    56.8908
   12.4749    28.0609  -125.4610   108.0726    47.4757
   12.4950    24.7338  -121.6684   100.7052    42.4771
   12.5150    22.0052  -118.0987    93.7315    41.5587
   12.5351    19.7439  -114.7584    88.5991    43.5103
   12.5551    17.8507  -111.6406    85.9228    47.0078
   12.5752    16.2500  -108.7307    85.7826    50.8264
   12.5952    14.8841  -106.0127    87.8103    53.8954
   12.6152    13.7085  -103.4700    91.2232    55.4899
   12.6353    12.6889  -101.0868    95.0895    55.4820
  12.65531   11.79776  -98.84792   98.84853   54.28089
   12.6754    11.0137   -96.7401   102.6049    52.2437
   12.6954    10.3195   -94.7511   106.6936    49.0128
   12.7154     9.7013   -92.8705   110.7240    43.5789
   12.7355     9.1477   -91.0882   113.0375    35.3309
   12.7555     8.6496   -89.3959   111.4771    25.3348
   12.7756     8.1993   -87.7860   105.2090    16.2845
  12.79559    7.79045  -86.25194   95.60088   10.68958
  12.81563    7.41776  -84.78723   85.04883    9.34164
  12.83567    7.07677  -83.38676   75.42529   11.54928
  12.85571    6.76370  -82.04551   67.60494   16.14361
  12.87575    6.47535  -80.75941   61.76393   22.11456
  12.89579    6.20893  -79.52440   57.76008   28.76509
  12.91583    5.96209  -78.33679   55.35586   35.64774
  12.93587    5.73280  -77.19370   54.29523   42.48206
  12.95591    5.51924  -76.09202   54.32240   49.11827
  12.97595    5.31990  -75.02909   55.21528   55.53218
  12.99599    5.13340  -74.00269   56.84687   61.79755
  13.01603    4.95858  -73.01059   59.21039   68.01357
  13.03607    4.79436  -72.05075   62.40704   74.26334
  13.05611    4.63982  -71.12122   66.66653   80.57064
  13.07615    4.49413  -70.22047   72.34036   86.78634
  13.09619    4.35658  -69.34698   79.77305   92.48312
  13.11623    4.22648  -68.49918   89.12561   96.96402
   13.1363     4.1033   -67.6758   100.2160    99.3541
   13.1563     3.9864   -66.8756   112.3947    98.7857
   13.1764     3.8754   -66.0975   124.5529    94.6992
   13.1964     3.7698   -65.3404   135.3925    87.0283
   13.2164     3.6693   -64.6033   143.5594    76.0893
   13.2365     3.5736   -63.8852   147.4814    62.7772
   13.2565     3.4821   -63.1855   145.8698    49.1915
   13.2766     3.3948   -62.5031   138.9818    38.2883
   13.2966     3.3113   -61.8374   128.9611    32.3243
   13.3166     3.2314   -61.1877   118.6550    31.7616
   13.3367     3.1548   -60.5534   110.2703    35.5992
   13.3567     3.0814   -59.9337   104.9667    42.3339
   13.3768     3.0109   -59.3281   103.1810    50.5749
   13.3968     2.9433   -58.7361   105.0356    59.1365
   13.4168     2.8782   -58.1571   110.5204    66.8584
   13.4369     2.8157   -57.5906   119.3831    72.3901
   13.4569     2.7554   -57.0363   130.7491    74.1771
   13.4770     2.6974   -56.4936   142.6620    70.9493
   13.4970     2.6415   -55.9621   152.2257    62.8304
   13.5170     2.5875   -55.4414   157.0925    52.1216
   13.5371     2.5355   -54.9312   157.3383    42.1138
   13.5571     2.4852   -54.4311   155.2327    34.5960
   13.5772     2.4366   -53.9407   152.9734    28.9292
   13.5972     2.3896   -53.4598   150.9411    23.3549
   13.6172     2.3442   -52.9879   147.7319    16.9396
   13.6373     2.3002   -52.5251   141.6986    10.6913
   13.6573     2.2577   -52.0706   132.7677     6.8340
   13.6774     2.2164   -51.6245   122.6583     6.9038
   13.6974     2.1764   -51.1865   113.4833    10.8095
   13.7174     2.1377   -50.7562   106.5849    17.3892
   13.7375     2.1000   -50.3335   102.3518    25.2685
   13.7575     2.0635   -49.9181   100.4852    33.3270
   13.7776     2.0281   -49.5099   100.2733    40.9164
   13.7976     1.9937   -49.1086   100.9023    47.9917
   13.8176     1.9602   -48.7141   101.8719    55.0670
   13.8377     1.9277   -48.3260   103.3187    62.8309
   13.8577     1.8961   -47.9444   105.9291    71.6169
   13.8778     1.8654   -47.5689   110.4876    81.1556
   13.8978     1.8354   -47.1995   117.4701    90.7311
   13.9178     1.8063   -46.8359   126.8763    99.5001
   13.9379     1.7779   -46.4780   138.3135   106.8336
   13.9579     1.7503   -46.1257   151.3575   112.4671
   13.9780     1.7234   -45.7789   165.8469   116.1489
   13.9980     1.6972   -45.4372   181.4677   117.1721
   14.0180     1.6716   -45.1008   196.9132   114.8576
   14.0381     1.6466   -44.7694   210.1569   109.9834
   14.0581     1.6223   -44.4428   220.4161   105.2344
   14.0782     1.5985   -44.1211   229.6983   103.2307
   14.0982     1.5754   -43.8040   241.7004   104.0787
   14.1182     1.5527   -43.4915   259.3715   104.9461
   14.1383     1.5306   -43.1834   283.1771   101.2166
   14.1583     1.5091   -42.8797   310.1352    88.2284
   14.1784     1.4880   -42.5802   333.7663    63.9780
   14.1984     1.4674   -42.2849   346.8224    32.1083
   14.2184     1.4472   -41.9936   346.7788     1.3272
   14.2385     1.4275   -41.7063   338.5468   -20.5291
   14.2585     1.4083   -41.4229   330.6882   -31.7302
   14.2786     1.3894   -41.1433   330.0508   -36.3845
   14.2986     1.3710   -40.8674   339.4136   -41.4970
   14.3186     1.3530   -40.5951   357.0663   -54.6235
   14.3387     1.3353   -40.3264   376.5757   -81.5898
   14.3587     1.3180   -40.0611   387.9119  -123.0452
   14.3788     1.3011   -39.7992   382.3197  -171.9581
   14.3988     1.2845   -39.5408   358.5435  -216.9983
   14.4188     1.2683   -39.2856   322.8874  -250.2007
   14.4389     1.2524   -39.0335   283.1195  -270.1390
   14.4589     1.2368   -38.7847   244.2256  -278.9959
   14.4790     1.2216   -38.5389   208.6908  -279.3981
   14.4990     1.2066   -38.2961   177.8106  -273.6949
   14.5190     1.1919   -38.0562   152.1082  -264.0720
   14.5391     1.1775   -37.8193   131.4123  -252.3999
   14.5591     1.1634   -37.5852   115.1196  -240.0675
   14.5792     1.1496   -37.3539   102.4555  -228.0049
   14.5992     1.1360   -37.1253    92.6055  -216.7929
   14.6192     1.1227   -36.8994    84.7472  -206.6991
   14.6393     1.1096   -36.6762    78.1472  -197.6515
   14.6593     1.0968   -36.4555    72.3576  -189.3088
   14.6794     1.0842   -36.2374    67.3106  -181.3374
   14.6994     1.0718   -36.0217    63.1348  -173.6483
   14.7194     1.0597   -35.8085    59.8947  -166.3817
   14.7395     1.0477   -35.5977    57.4799  -159.7298
   14.7595     1.0360   -35.3892    55.6707  -153.7840
   14.7796     1.0245   -35.1832    54.2920  -148.5187
   14.7996     1.0132   -34.9793    53.2689  -143.9425
   14.8196     1.0021   -34.7777    52.4600  -140.1979
   14.8397     0.9912   -34.5783    51.4698  -137.3878
   14.8597     0.9805   -34.3810    49.7663  -135.2569
   14.8798     0.9700   -34.1859    47.1033  -133.1543
   14.8998     0.9596   -33.9929    43.7616  -130.4463
   14.9198     0.9494   -33.8019    40.2904  -126.8997
   14.9399     0.9394   -33.6129    37.1298  -122.6450
   14.9599     0.9295   -33.4259    34.4832  -117.9349
   14.9800     0.9199   -33.2409    32.3855  -112.9873
   15.0000     0.9103   -33.0578    30.7957  -107.9418
# 
# 12/12/2016 at 18:16 YAMBO @ NewLaptop [start]
# 12/12/2016 at 18:16                   [end]
#  
# Timing   [Min/Max/Average]: 01s/01s/01s
#
# .-Input file : INPUTS/06_BSE_cpl
# | optics                       # [R OPT] Optics
# | bse                          # [R BSE] Bethe Salpeter Equation.
# | bsk                          # [R BSK] Bethe Salpeter Equation kernel
# | bss                          # [R BSS] Bethe Salpeter Equation solver
# | em1s                         # [R Xs] Static Inverse Dielectric Matrix
# | NonPDirs= "XYZ"              # [X/BSS] Non periodic chartesian directions (X,Y,Z,XY...)
# | Chimod= "Hartree"            # [X] IP/Hartree/ALDA/LRC/BSfxc
# | BSEmod= "coupling"           # [BSE] resonant/retarded/coupling
# | BSKmod= "SEX"                # [BSE] IP/Hartree/HF/ALDA/SEX/BSfxc
# | BSSmod= "d"                  # [BSS] (h)aydock/(d)iagonalization/(i)nversion/(t)ddft`
# | BSENGexx= 1535         mHa   # [BSK] Exchange components
# | BSENGBlk=  595         mHa   # [BSK] Screened interaction block size
# | WehCpl                       # [BSK] eh interaction included also in coupling
# | KfnQPdb= "E < 04_QP/ndb.QP uki" # [EXTQP BSK BSS] Database
# | % BEnRange
# |   5.00000 | 15.00000 | eV    # [BSS] Energy range
# | %
# | % BDmRange
# |   0.10000 |  0.10000 | eV    # [BSS] Damping range
# | %
# | BEnSteps=  500               # [BSS] Energy steps
# | % BLongDir
# | 0.5774E-5 |0.5774E-5 |0.5774E-5 |        # [BSS] [cc] Electric Field
# | %
# | % BSEBands
# |   14 |  34 |                 # [BSK] Bands range
# | %
# | % BndsRnXs
# |    1 |  50 |                 # [Xs] Polarization function bands
# | %
# | NGsBlkXs= 1535         mHa   # [Xs] Response block size
# | % DmRngeXs
# | 0.1000E-2 |0.1000E-2 | eV    # [Xs] Damping range
# | %
# | % LongDrXs
# | 0.1000E-4 | 0.000    | 0.000    |        # [Xs] [cc] Electric Field
# | %
